Tempo(s),Canal0(V),Canal2(V),Canal3(V),Label
0.0018427371978759,1.24225,1.88325,2.08375,0
0.1862275600433349,1.32225,1.9235,2.08375,0
0.6932351589202881,1.32225,2.04375,2.12375,0
0.9810724258422852,1.28225,1.9235,2.08375,0
1.0050461292266846,1.28225,1.84325,2.08375,0
1.0263893604278564,1.28225,1.84325,2.0035,0
1.048008918762207,1.3625,1.80325,2.0035,0
1.0696451663970947,1.28225,1.84325,2.0035,0
1.0911893844604492,1.32225,1.9235,2.08375,0
1.1129450798034668,1.28225,1.88325,2.08375,0
1.1346533298492432,1.24225,1.9235,2.12375,0
1.1563255786895752,1.32225,1.9235,2.244,0
1.1781249046325684,1.3625,1.9235,2.16375,0
1.1999263763427734,1.32225,2.0035,2.16375,0
1.2215991020202637,1.28225,2.0035,2.16375,0
1.2433180809020996,1.28225,1.9635,2.08375,0
1.2650361061096191,1.3625,1.9235,2.08375,0
1.2866499423980713,1.28225,1.9235,2.08375,0
1.3088245391845703,1.3625,1.9235,2.08375,0
1.3304486274719238,1.3625,1.9235,2.08375,0
1.3520755767822266,1.28225,1.84325,2.16375,0
1.3737938404083252,1.3625,1.84325,2.16375,0
1.3954124450683594,1.4025,1.9235,2.16375,0
1.417224407196045,1.3625,1.84325,2.16375,0
1.4388995170593262,1.4025,1.9235,2.244,0
1.460618495941162,1.3625,1.88325,2.08375,0
1.482421875,1.48275,1.84325,2.0035,0
1.5041756629943848,1.3625,1.84325,2.08375,0
1.5260343551635742,1.4425,1.84325,1.9635,0
1.547743558883667,1.4425,1.76325,1.9635,0
1.5696511268615725,1.3625,1.84325,2.08375,0
1.5919535160064695,1.4425,1.88325,2.204,0
1.6138803958892822,1.48275,1.84325,2.08375,0
1.6385505199432373,1.3625,1.88325,2.16375,0
1.660841464996338,1.3625,1.88325,2.08375,0
1.682969331741333,1.3625,1.84325,2.12375,0
1.7049520015716553,1.3625,1.9235,2.16375,0
1.726442813873291,1.28225,1.9235,2.08375,0
1.7483651638031006,1.32225,1.84325,2.08375,0
1.7698957920074463,1.20225,1.9235,2.08375,0
1.7918531894683838,1.28225,1.84325,2.08375,0
1.813948631286621,1.28225,1.9235,2.0035,0
1.8358943462371824,1.24225,1.9235,2.08375,0
1.8580424785614016,1.28225,1.9235,2.16375,0
1.882606029510498,1.28225,1.88325,2.12375,0
1.9042439460754397,1.28225,1.9235,2.08375,0
1.9263520240783691,1.32225,1.88325,2.08375,0
1.94850492477417,1.32225,1.84325,2.04375,0
1.9704842567443848,1.28225,1.9235,2.08375,0
1.9926214218139648,1.3625,1.9235,2.08375,0
2.014693260192871,1.3625,1.9235,2.08375,0
2.036898136138916,1.28225,1.88325,2.16375,0
2.0590343475341797,1.32225,1.9235,2.12375,0
2.081216335296631,1.3625,1.9235,2.08375,0
2.1032474040985107,1.20225,1.9235,2.16375,0
2.1255197525024414,1.28225,1.9235,2.16375,0
2.147719621658325,1.3625,1.84325,2.0035,0
2.170311212539673,1.28225,1.84325,2.08375,0
2.1926839351654053,1.28225,1.9235,2.08375,0
2.2149300575256348,1.3625,1.84325,2.08375,0
2.237046718597412,1.28225,1.84325,2.08375,0
2.258721113204956,1.28225,1.9235,2.12375,0
2.280977964401245,1.28225,1.9235,2.08375,0
2.3026368618011475,1.24225,1.9235,2.12375,0
2.3249077796936035,1.28225,1.9235,2.16375,0
2.3471789360046387,1.28225,1.84325,2.08375,0
2.369520425796509,1.24225,1.84325,2.08375,0
2.391725778579712,1.28225,1.84325,2.08375,0
2.414142608642578,1.28225,1.84325,2.0035,0
2.4365124702453613,1.24225,1.9235,2.08375,0
2.4586434364318848,1.28225,1.84325,2.16375,0
2.480931282043457,1.32225,1.88325,2.08375,0
2.502640724182129,1.20225,1.9235,2.16375,0
2.5249886512756348,1.32225,1.9235,2.16375,0
2.5467350482940674,1.3625,1.9235,2.08375,0
2.5690550804138184,1.28225,1.88325,2.12375,0
2.591344833374023,1.28225,1.88325,2.12375,0
2.6139168739318848,1.28225,1.88325,2.08375,0
2.6362805366516113,1.28225,1.88325,2.08375,0
2.6587331295013428,1.28225,1.9235,2.16375,0
2.6811933517456055,1.28225,1.9235,2.08375,0
2.7034876346588135,1.20225,1.9235,2.08375,0
2.726041316986084,1.28225,1.9235,2.12375,0
2.7489304542541504,1.32225,1.9235,2.16375,0
2.771254777908325,1.28225,1.88325,2.12375,0
2.794022560119629,1.28225,1.9235,2.08375,0
2.816359758377075,1.28225,1.84325,2.04375,0
2.838291645050049,1.24225,1.88325,2.08375,0
2.8607542514801025,1.28225,1.88325,2.08375,0
2.8831276893615723,1.28225,1.84325,2.08375,0
2.905611515045166,1.28225,1.88325,2.16375,0
2.928008556365967,1.32225,1.9235,2.08375,0
2.950561285018921,1.32225,1.84325,2.08375,0
2.9730494022369385,1.32225,1.9235,2.16375,0
2.995434045791626,1.3625,1.9235,2.08375,0
3.0180823802948,1.28225,1.84325,2.08375,0
3.0409326553344727,1.3625,1.9235,2.08375,0
3.063617706298828,1.3625,1.84325,2.0035,0
3.0861382484436035,1.28225,1.84325,2.08375,0
3.10864520072937,1.28225,1.9235,2.08375,0
3.1310768127441406,1.28225,1.88325,2.0035,0
3.1535916328430176,1.20225,1.9235,2.08375,0
3.1761841773986816,1.28225,1.9235,2.12375,0
3.198744773864746,1.32225,1.84325,2.12375,0
3.221327781677246,1.24225,1.9235,2.16375,0
3.243811845779419,1.28225,1.9235,2.08375,0
3.2664942741394043,1.24225,1.84325,2.08375,0
3.2890372276306152,1.28225,1.88325,2.12375,0
3.3116488456726074,1.28225,1.88325,2.04375,0
3.3347091674804688,1.24225,1.9235,2.12375,0
3.357327699661255,1.28225,1.9235,2.16375,0
3.379934549331665,1.32225,1.9235,2.08375,0
3.402647018432617,1.28225,1.9235,2.12375,0
3.425286054611206,1.32225,1.9235,2.16375,0
3.4478681087493896,1.28225,1.88325,2.08375,0
3.470468521118164,1.28225,1.84325,2.08375,0
3.49312162399292,1.28225,1.88325,2.04375,0
3.515739679336548,1.28225,1.84325,2.08375,0
3.53852915763855,1.24225,1.88325,2.08375,0
3.5612282752990723,1.28225,1.88325,2.08375,0
3.5839054584503174,1.28225,1.9235,2.16375,0
3.606663227081299,1.3625,1.9235,2.16375,0
3.629997491836548,1.3625,1.9235,2.08375,0
3.652625560760498,1.28225,1.88325,2.08375,0
3.6753199100494385,1.28225,1.9235,2.12375,0
3.698142290115357,1.28225,1.9235,2.0035,0
3.720783233642578,1.20225,1.9235,2.08375,0
3.743513584136963,1.28225,1.88325,2.04375,0
3.766204595565796,1.28225,1.84325,2.08375,0
3.788830280303955,1.28225,1.84325,2.12375,0
3.8115062713623047,1.3625,1.88325,2.08375,0
3.834624767303467,1.28225,1.9235,2.12375,0
3.85736632347107,1.28225,1.9235,2.16375,0
3.8799281120300297,1.28225,1.9235,2.0035,0
3.9026832580566406,1.20225,1.9235,2.04375,0
3.925941228866577,1.28225,1.9235,2.04375,0
3.948474168777466,1.28225,1.84325,2.0035,0
3.9710357189178462,1.28225,1.84325,2.04375,0
3.993982315063477,1.28225,1.88325,2.08375,0
4.0181801319122314,1.28225,1.84325,2.08375,0
4.040485620498657,1.28225,1.88325,2.12375,0
4.0630645751953125,1.28225,1.84325,2.08375,0
4.085808038711548,1.28225,1.9235,2.16375,0
4.108503580093384,1.28225,1.9235,2.12375,0
4.131114959716797,1.32225,1.88325,2.04375,0
4.153878450393677,1.28225,1.9235,2.08375,0
4.176581859588623,1.28225,1.84325,2.04375,0
4.199157953262329,1.28225,1.84325,2.08375,0
4.222425937652588,1.28225,1.84325,2.08375,0
4.245167970657349,1.28225,1.88325,2.04375,0
4.267887830734253,1.24225,1.9235,2.12375,0
4.290566682815552,1.28225,1.9235,2.16375,0
4.313403367996216,1.28225,1.9235,2.04375,0
4.3361289501190186,1.24225,1.9235,2.08375,0
4.3588714599609375,1.28225,1.9235,2.08375,0
4.3817784786224365,1.28225,1.84325,2.0035,0
4.40451455116272,1.24225,1.84325,2.04375,0
4.427228927612305,1.28225,1.9235,2.04375,0
4.450218915939331,1.32225,1.84325,2.04375,0
4.472958326339722,1.32225,1.9235,2.08375,0
4.4952099323272705,1.32225,1.88325,2.04375,0
4.518625736236572,1.28225,1.84325,2.04375,0
4.541433334350586,1.3625,1.9235,2.16375,0
4.564221143722534,1.3625,1.84325,2.08375,0
4.58730411529541,1.28225,1.9235,2.08375,0
4.6130781173706055,1.3625,1.88325,2.0035,0
4.635476350784302,1.24225,1.84325,2.04375,0
4.658453702926636,1.28225,1.9235,2.08375,0
4.6814165115356445,1.28225,1.84325,2.08375,0
4.704232931137085,1.28225,1.88325,2.08375,0
4.727133512496948,1.28225,1.9235,2.08375,0
4.750128269195557,1.28225,1.88325,2.12375,0
4.773148775100708,1.28225,1.88325,2.16375,0
4.796018362045288,1.28225,1.84325,2.04375,0
4.819495677947998,1.28225,1.9235,2.04375,0
4.8424882888793945,1.28225,1.84325,2.04375,0
4.865456819534302,1.28225,1.84325,2.08375,0
4.888368606567383,1.28225,1.88325,2.08375,0
4.911376476287842,1.28225,1.9235,2.04375,0
4.9344258308410645,1.28225,1.84325,2.08375,0
4.957395076751709,1.28225,1.84325,2.16375,0
4.980305910110474,1.28225,1.84325,2.08375,0
5.003185987472534,1.24225,1.84325,2.08375,1
5.026299715042114,1.28225,1.9235,2.08375,1
5.049286603927612,1.32225,1.88325,2.04375,1
5.0723724365234375,1.28225,1.88325,2.08375,1
5.095433950424194,1.3625,1.88325,2.08375,1
5.118830680847168,1.28225,1.9235,2.08375,1
5.141901254653931,1.28225,1.88325,2.12375,1
5.164823770523071,1.28225,1.9235,2.04375,1
5.187800168991089,1.24225,1.84325,2.12375,1
5.210961818695068,1.28225,1.9235,2.08375,1
5.234099626541138,1.28225,1.9235,2.08375,1
5.257218599319458,1.28225,1.9235,2.08375,1
5.280257225036621,1.28225,1.88325,2.0035,1
5.303314685821533,1.28225,1.9235,2.08375,1
5.3265299797058105,1.32225,1.9235,2.08375,1
5.34962272644043,1.32225,1.88325,2.08375,1
5.3727428913116455,1.28225,1.9235,2.16375,1
5.395818471908569,1.28225,1.9235,2.08375,1
5.419460296630859,1.20225,1.88325,2.12375,1
5.442546844482422,1.28225,1.9235,2.12375,1
5.465695858001709,1.28225,1.84325,2.08375,1
5.488799810409546,1.28225,1.9235,2.08375,1
5.51188325881958,1.28225,1.88325,2.0035,1
5.535077095031738,1.28225,1.84325,2.04375,1
5.558298826217651,1.32225,1.88325,2.08375,1
5.58154821395874,1.3625,1.9235,2.08375,1
5.604816198348999,1.28225,1.88325,2.12375,1
5.627995252609253,1.28225,1.9235,2.08375,1
5.6511390209198,1.28225,1.88325,2.16375,1
5.674453496932983,1.28225,1.9235,2.12375,1
5.6976706981658936,1.28225,1.88325,2.08375,1
5.721402406692505,1.28225,1.84325,2.08375,1
5.74450421333313,1.28225,1.84325,2.08375,1
5.76767110824585,1.28225,1.84325,2.08375,1
5.790964365005493,1.28225,1.9235,2.12375,1
5.814286470413208,1.28225,1.9235,2.0035,1
5.837505340576172,1.24225,1.9235,2.12375,1
5.860861778259277,1.28225,1.9235,2.12375,1
5.884133338928223,1.28225,1.9235,2.12375,1
5.907378673553467,1.28225,1.9235,2.12375,1
5.930670261383057,1.28225,1.84325,2.0035,1
5.954006195068359,1.28225,1.88325,2.0035,1
5.977282285690308,1.32225,1.9235,2.08375,1
6.0006279945373535,1.3625,1.84325,2.16375,1
6.0243706703186035,2.16375,2.16375,2.5245,1
6.04714560508728,2.40425,2.40425,2.5645,1
6.070508241653442,2.32425,2.60475,2.88525,1
6.093929052352905,2.72475,3.0855,2.805,1
6.117350101470947,2.765,3.0455,3.28575,1
6.140667676925659,3.0455,3.00525,3.84675,1
6.164084196090698,2.805,2.88525,3.6865,1
6.187474489212036,2.40425,2.64475,3.6065,1
6.210962295532227,2.244,2.5645,3.44625,1
6.234626293182373,2.40425,2.60475,3.927,1
6.258263349533081,2.96525,2.92525,4.00725,1
6.281930685043335,2.88525,2.88525,3.84675,1
6.305432558059692,2.96525,2.88525,3.76675,1
6.329453945159912,2.72475,3.1255,3.76675,1
6.352914333343506,2.5645,2.72475,3.44625,1
6.376494884490967,2.60475,2.72475,3.56625,1
6.400432586669922,2.805,2.64475,3.6465,1
6.423940658569336,2.92525,2.60475,4.36775,1
6.4475531578063965,3.1255,2.68475,4.56825,1
6.471058130264282,3.24575,2.72475,4.32775,1
6.494658470153809,3.00525,2.5645,4.28775,1
6.518383264541626,2.72475,2.5645,3.72675,1
6.542142868041992,2.40425,2.5645,3.6465,1
6.565896272659302,2.244,2.36425,3.967,1
6.589455604553223,2.5645,2.40425,4.448,1
6.613198757171631,2.5245,2.4442500000000003,4.04725,1
6.637228012084961,2.5245,2.4442500000000003,3.76675,1
6.660768508911133,2.32425,2.4845,3.56625,1
6.684352874755859,2.16375,2.4845,3.28575,1
6.708012580871582,2.08375,2.64475,3.0855,1
6.7316248416900635,1.9235,2.4845,2.765,1
6.7553558349609375,2.04375,2.4845,2.805,1
6.7790772914886475,2.0035,2.36425,2.845,1
6.802778959274292,2.12375,2.4845,2.805,1
6.8265604972839355,2.16375,2.40425,2.88525,1
6.85047459602356,2.08375,2.204,2.805,1
6.874268293380737,1.76325,2.16375,2.64475,1
6.898120641708374,2.08375,2.32425,2.40425,1
6.921950817108154,1.76325,2.16375,2.244,1
6.946249723434448,1.84325,2.204,2.36425,1
6.970000505447388,1.683,2.16375,2.32425,1
6.993973970413208,1.88325,2.12375,2.2840000000000003,1
7.017879009246826,1.80325,2.08375,2.204,1
7.041639804840088,1.60275,2.16375,2.08375,1
7.065534830093384,1.52275,2.4442500000000003,2.244,1
7.089560508728027,1.683,2.32425,2.12375,1
7.113523483276367,1.723,2.16375,2.0035,1
7.137349843978882,1.683,2.16375,2.244,1
7.161128044128418,1.60275,2.12375,2.204,1
7.1849586963653564,1.52275,2.0035,2.04375,1
7.208810091018677,1.48275,2.08375,2.08375,1
7.232716083526611,1.60275,2.12375,2.16375,1
7.256999254226685,1.56275,2.244,2.16375,1
7.28223180770874,1.84325,2.204,1.9235,1
7.306381940841675,1.723,2.04375,1.9235,1
7.330347061157227,1.76325,2.04375,1.9635,1
7.3543171882629395,1.76325,2.12375,2.08375,1
7.37837553024292,1.9635,2.40425,2.5645,1
7.40243673324585,1.88325,2.40425,2.765,1
7.4264748096466064,2.04375,2.5245,2.92525,1
7.45050048828125,1.84325,2.40425,2.96525,1
7.474550247192383,1.88325,2.40425,3.0855,1
7.498569965362549,2.0035,2.2840000000000003,2.92525,1
7.522640705108643,1.84325,2.204,2.64475,1
7.546774387359619,1.9235,2.204,2.64475,1
7.573328256607056,1.84325,2.16375,2.64475,1
7.598886966705322,1.723,2.204,2.5245,1
7.622968912124634,1.4025,2.244,2.40425,1
7.647051334381104,1.683,2.16375,2.72475,1
7.671075582504272,1.60275,2.204,2.92525,1
7.695160627365112,1.56275,2.244,2.4442500000000003,1
7.719232559204102,1.4425,2.12375,2.5245,1
7.74335503578186,1.24225,2.04375,2.4845,1
7.767439365386963,1.4425,2.08375,2.4442500000000003,1
7.791488885879517,1.48275,2.08375,2.204,1
7.8157172203063965,1.52275,2.16375,3.24575,1
7.839764833450317,1.52275,2.32425,3.1255,1
7.863978624343872,1.52275,2.204,3.00525,1
7.888560771942139,1.52275,2.204,3.24575,1
7.912659168243408,1.723,2.16375,2.96525,1
7.936682462692261,1.80325,2.244,3.00525,1
7.960799694061279,2.0035,2.16375,3.1255,1
7.985075235366821,2.0035,2.08375,2.96525,1
8.00934886932373,1.88325,2.08375,2.64475,1
8.0337975025177,1.723,2.244,2.72475,1
8.058063745498657,1.76325,2.16375,2.845,1
8.082438230514526,2.0035,2.32425,2.805,1
8.106674909591675,1.84325,2.244,2.88525,1
8.130919933319092,1.9235,2.16375,2.5645,1
8.15524435043335,1.683,2.08375,2.36425,1
8.179479598999023,1.52275,1.9635,2.36425,1
8.20446252822876,1.60275,2.32425,2.204,1
8.228754043579102,1.52275,2.244,2.16375,1
8.252968311309814,1.3625,2.12375,2.64475,1
8.277386903762817,1.60275,2.244,2.64475,1
8.30186414718628,1.643,2.244,2.765,1
8.326322317123413,1.48275,2.12375,2.72475,1
8.3507661819458,1.60275,2.204,2.805,1
8.375122785568237,1.9635,2.36425,3.00525,1
8.399559020996094,2.4845,2.2840000000000003,3.52625,1
8.423912048339844,2.40425,2.36425,3.20575,1
8.448394060134888,2.40425,2.32425,3.16575,1
8.472849369049072,2.72475,2.40425,3.28575,1
8.49738621711731,2.765,2.64475,3.406,1
8.522384643554688,2.5645,2.5645,3.20575,1
8.546836853027344,2.96525,2.5245,4.00725,1
8.571627140045166,2.845,2.68475,3.84675,1
8.596216678619385,3.0855,2.4845,4.1675,1
8.620710134506226,3.1255,2.40425,4.08725,1
8.645311832427979,3.0455,2.5245,4.08725,1
8.669966697692871,2.5645,2.4845,3.84675,1
8.694591283798218,2.32425,2.4442500000000003,3.16575,1
8.719228506088257,2.4442500000000003,2.4442500000000003,3.20575,1
8.743845701217651,2.4845,2.32425,3.0455,1
8.76845908164978,2.32425,2.2840000000000003,2.805,1
8.793095827102661,2.244,2.4845,3.0455,1
8.817823648452759,2.08375,2.5245,3.366,1
8.843012571334839,2.12375,2.32425,2.88525,1
8.867619037628174,2.0035,2.40425,2.92525,1
8.892394781112671,2.12375,2.68475,2.72475,1
8.917109966278076,2.32425,2.4845,2.68475,1
8.941929578781128,2.5245,2.4845,3.00525,1
8.966697454452515,2.16375,2.244,2.64475,1
8.991490602493286,2.36425,2.2840000000000003,2.4845,1
9.016251802444458,2.0035,2.36425,2.5645,1
9.040979862213137,2.04375,2.40425,2.64475,1
9.065817832946776,2.40425,2.2840000000000003,2.845,1
9.090647459030151,2.08375,2.244,2.805,1
9.11570692062378,1.9635,2.244,2.96525,1
9.140514612197876,1.84325,2.08375,2.68475,1
9.166032791137695,1.76325,1.9635,2.4845,1
9.190742015838625,1.84325,2.0035,2.244,1
9.215652227401732,1.60275,2.0035,2.12375,1
9.240470886230469,1.52275,2.04375,2.40425,1
9.265349626541138,1.56275,2.12375,2.244,1
9.290300130844116,1.52275,2.04375,2.204,1
9.315183162689207,1.683,1.9635,2.08375,1
9.340144872665403,1.683,2.32425,2.204,1
9.365079641342165,1.9235,2.32425,2.204,1
9.390084743499756,1.80325,2.12375,2.12375,1
9.415117025375366,1.723,1.9635,2.60475,1
9.440033197402954,1.80325,2.0035,2.72475,1
9.46506142616272,1.683,2.08375,2.4442500000000003,1
9.490651845932009,1.4425,2.0035,2.4845,1
9.515601396560667,1.4025,1.88325,2.244,1
9.540567398071287,1.4425,2.0035,2.4442500000000003,1
9.566426992416382,1.76325,2.08375,2.5645,1
9.592207193374634,1.76325,2.16375,2.64475,1
9.617260694503784,1.723,2.04375,2.5645,1
9.642347812652588,1.80325,1.84325,2.36425,1
9.66734218597412,1.76325,1.84325,2.40425,1
9.692447900772097,1.76325,1.80325,2.72475,1
9.717537641525269,1.683,2.04375,2.68475,1
9.742623805999756,1.60275,1.9235,2.64475,1
9.767635107040403,1.60275,2.0035,2.72475,1
9.792693376541138,1.683,2.08375,2.40425,1
9.818233966827393,1.683,1.9635,2.244,1
9.84324336051941,1.683,1.9235,1.9635,1
9.868276834487917,1.643,1.84325,2.04375,1
9.8932945728302,1.723,2.244,2.12375,1
9.91843557357788,1.80325,2.16375,2.32425,1
9.943467140197754,1.683,2.04375,2.08375,1
9.968601942062378,1.56275,2.0035,2.40425,1
9.993818759918211,1.52275,1.9235,2.16375,1
10.018932819366457,1.4425,1.80325,2.0035,2
10.04415512084961,1.60275,1.76325,2.244,2
10.069366931915283,1.723,2.244,2.0035,2
10.094591856002808,1.80325,2.08375,2.0035,2
10.119880676269531,1.723,2.16375,1.9635,2
10.14561915397644,1.683,2.0035,1.76325,2
10.17088222503662,1.4425,1.9235,1.723,2
10.19615364074707,1.4425,1.9235,1.80325,2
10.2215576171875,1.683,2.204,1.9635,2
10.246944665908812,1.76325,2.12375,1.80325,2
10.27227783203125,1.56275,2.04375,1.683,2
10.29763913154602,1.60275,2.0035,1.76325,2
10.323148012161257,1.52275,2.0035,1.76325,2
10.3485689163208,1.4425,1.9235,1.60275,2
10.37395477294922,1.3625,1.9235,1.60275,2
10.39928412437439,1.3625,1.9235,1.56275,2
10.424663543701172,1.3625,2.0035,1.52275,2
10.450137376785278,1.28225,1.80325,1.4425,2
10.476056575775146,1.3625,1.9235,1.52275,2
10.501444101333618,1.3625,2.36425,1.60275,2
10.52679443359375,1.20225,3.366,1.48275,2
10.552238702774048,1.122,3.0455,1.4425,2
10.577795028686523,1.082,3.28575,1.52275,2
10.603328466415403,1.122,3.44625,1.60275,2
10.628981113433838,1.32225,4.488,1.9235,2
10.6569344997406,1.56275,4.7285,2.08375,2
10.682785511016846,1.76325,4.88875,1.9235,2
10.70863151550293,2.0035,5.52975,2.04375,2
10.734309434890749,2.0035,6.09075,2.244,2
10.759927988052368,2.0035,5.52975,2.32425,2
10.785690307617188,1.9635,5.61,2.16375,2
10.811979293823242,2.16375,5.65,2.32425,2
10.837591409683228,2.204,5.9705,2.32425,2
10.863311529159546,2.244,5.8505,2.244,2
10.889070987701416,2.204,5.3695,2.2840000000000003,2
10.914824485778809,2.244,5.049,2.36425,2
10.940519332885742,2.244,5.089,2.2840000000000003,2
10.966306686401367,2.16375,4.88875,2.16375,2
10.991988897323608,2.244,5.12925,2.244,2
11.017895460128784,2.40425,5.57,2.32425,2
11.04481029510498,2.2840000000000003,4.96875,2.244,2
11.07020664215088,2.12375,4.64825,2.32425,2
11.09593152999878,2.4845,4.488,2.40425,2
11.1216881275177,2.4442500000000003,4.8085,2.40425,2
11.147938013076782,2.72475,5.12925,2.5645,2
11.173691034317017,2.40425,5.52975,2.4845,2
11.199467182159424,2.765,6.211,2.5645,2
11.225420236587524,2.60475,5.52975,2.4442500000000003,2
11.251254320144652,2.244,5.20925,2.204,2
11.277198791503906,2.244,4.96875,2.244,2
11.30298399925232,2.12375,4.7685,2.08375,2
11.32886290550232,2.04375,4.7285,2.04375,2
11.354747772216797,2.04375,4.32775,1.9635,2
11.38073468208313,2.16375,4.2475000000000005,2.04375,2
11.406656742095947,2.204,4.08725,2.0035,2
11.432529211044312,2.4845,4.36775,2.244,2
11.458520650863647,2.2840000000000003,4.488,2.244,2
11.484989643096924,2.244,4.7285,2.16375,2
11.510919570922852,2.2840000000000003,4.7285,2.244,2
11.536792278289797,2.32425,4.1675,2.244,2
11.56278133392334,2.2840000000000003,4.448,2.12375,2
11.588859796524048,2.244,4.1675,2.12375,2
11.614938974380491,2.12375,3.6065,2.04375,2
11.641030311584473,2.204,4.1675,2.244,2
11.667191743850708,2.32425,4.00725,2.32425,2
11.69333529472351,2.2840000000000003,4.12725,2.16375,2
11.719297647476196,2.16375,4.00725,2.16375,2
11.745419263839722,2.08375,4.00725,2.08375,2
11.771403312683104,2.12375,3.84675,2.08375,2
11.797580242156982,2.08375,3.927,2.12375,2
11.824255466461182,2.04375,3.48625,2.08375,2
11.85042667388916,1.9635,3.366,2.08375,2
11.87656283378601,2.04375,3.52625,2.08375,2
11.902627229690552,2.08375,3.76675,2.2840000000000003,2
11.928799629211426,2.204,4.00725,2.204,2
11.954939365386965,2.12375,4.488,2.244,2
11.981101036071776,2.204,4.40775,2.244,2
12.00731348991394,2.16375,4.488,2.244,2
12.033482074737549,2.08375,4.12725,2.244,2
12.059648752212524,2.08375,3.927,2.08375,2
12.085838317871094,2.08375,3.6865,2.16375,2
12.112209558486938,2.244,3.927,2.16375,2
12.13843822479248,2.244,4.2475000000000005,2.16375,2
12.1646625995636,2.04375,4.00725,2.04375,2
12.1914701461792,2.16375,4.08725,2.2840000000000003,2
12.217875003814695,2.08375,3.887,2.32425,2
12.2440288066864,2.244,4.2475000000000005,2.36425,2
12.270265579223633,2.0035,4.1675,2.204,2
12.296509265899658,2.0035,3.927,2.16375,2
12.322809219360352,2.0035,3.927,2.12375,2
12.349100589752195,1.9635,3.6865,2.08375,2
12.375434398651125,2.0035,4.00725,2.204,2
12.40320920944214,2.08375,4.00725,2.12375,2
12.430979490280151,2.08375,4.2475000000000005,2.204,2
12.458721399307253,2.16375,4.40775,2.40425,2
12.48641800880432,2.12375,4.1675,2.16375,2
12.514225006103516,1.9635,4.00725,2.08375,2
12.541951417922974,1.80325,3.52625,1.9235,2
12.570295810699465,1.80325,3.6065,1.9635,2
12.598117351531982,1.84325,3.967,2.12375,2
12.6259126663208,1.9235,3.967,2.16375,2
12.653611660003662,2.12375,3.44625,2.204,2
12.68143391609192,2.16375,3.76675,2.12375,2
12.709167003631592,1.9235,3.84675,2.0035,2
12.73606538772583,1.9235,3.84675,2.0035,2
12.762593507766724,1.9235,3.927,2.08375,2
12.78915524482727,1.84325,3.6065,2.04375,2
12.823174715042114,1.9635,3.72675,2.204,2
12.858249425888062,2.0035,3.6465,2.204,2
12.893077850341797,2.32425,3.6065,2.16375,2
12.919615983963013,1.9635,3.52625,1.9635,2
12.94641923904419,2.04375,3.80675,1.9235,2
12.973671197891235,2.244,4.1675,2.08375,2
13.000161170959473,2.0035,4.00725,2.16375,2
13.026752710342407,1.9235,3.76675,2.0035,2
13.05335283279419,1.88325,4.00725,1.9235,2
13.079948425292969,2.16375,3.927,2.08375,2
13.10662007331848,1.84325,3.44625,1.9635,2
13.1332745552063,1.84325,3.6065,2.0035,2
13.160057067871094,1.76325,3.76675,1.88325,2
13.186673879623411,1.9235,3.52625,1.84325,2
13.21341323852539,1.9635,3.76675,1.9235,2
13.240085124969482,2.0035,3.967,2.0035,2
13.266744375228882,2.0035,4.32775,2.08375,2
13.293493032455444,1.88325,4.08725,2.08375,2
13.320100784301758,1.80325,3.80675,2.12375,2
13.347653865814207,1.80325,3.72675,2.04375,2
13.374444723129272,1.84325,3.76675,1.9635,2
13.401189088821411,2.04375,3.52625,1.9635,2
13.42877984046936,1.9235,3.24575,1.9235,2
13.456355333328249,1.9235,4.08725,2.0035,2
13.483359336853027,2.0035,3.84675,2.04375,2
13.510490655899048,2.244,4.04725,2.08375,2
13.537343740463257,2.16375,3.6865,2.204,2
13.564291954040527,2.244,4.00725,2.16375,2
13.591193437576294,2.08375,3.76675,2.16375,2
13.61833429336548,1.76325,3.6065,2.0035,2
13.64525318145752,2.244,3.406,2.08375,2
13.672143459320068,2.244,3.48625,2.16375,2
13.699025630950928,2.4442500000000003,3.72675,2.16375,2
13.72624945640564,2.32425,3.56625,2.244,2
13.753507614135742,2.08375,3.20575,2.16375,2
13.780430316925049,1.84325,3.00525,1.9635,2
13.807372093200684,1.88325,3.44625,2.04375,2
13.834463596343994,2.0035,3.6065,1.9635,2
13.861458778381348,2.12375,3.52625,2.0035,2
13.888421535491943,2.04375,3.0855,2.0035,2
13.91575050354004,1.9635,3.366,2.0035,2
13.943161725997925,1.76325,3.00525,2.0035,2
13.970290660858154,1.9635,3.20575,2.0035,2
13.997328042984009,1.88325,2.72475,1.9235,2
14.024072647094728,1.80325,2.4845,1.9235,2
14.051169395446776,1.84325,2.5245,1.84325,2
14.078334093093872,1.9635,2.96525,1.84325,2
14.10602068901062,2.16375,3.28575,2.0035,2
14.133089065551758,2.04375,3.1255,1.9235,2
14.160176277160645,2.04375,3.20575,2.0035,2
14.187177181243896,1.9235,3.24575,2.0035,2
14.214446783065796,2.16375,3.6065,2.08375,2
14.241568088531494,2.04375,3.44625,2.12375,2
14.269009351730348,1.88325,3.56625,2.08375,2
14.296751976013184,2.0035,3.6865,2.08375,2
14.32387399673462,1.84325,3.44625,1.9635,2
14.351130962371826,1.88325,3.6065,2.04375,2
14.378415584564207,1.80325,3.326,2.0035,2
14.40561318397522,1.84325,3.20575,1.9635,2
14.432831287384031,1.84325,3.16575,1.84325,2
14.460069417953491,1.76325,3.0855,1.9235,2
14.487236499786375,1.76325,3.24575,1.9235,2
14.514655590057371,2.16375,3.72675,2.04375,2
14.542208433151243,2.08375,3.44625,2.0035,2
14.570010423660278,1.9635,3.52625,1.9635,2
14.597695589065552,2.16375,3.44625,2.04375,2
14.625108480453491,2.04375,3.28575,2.08375,2
14.652456760406494,1.9235,3.6065,2.08375,2
14.679794311523438,1.88325,3.44625,2.0035,2
14.70728874206543,1.9235,3.52625,2.0035,2
14.734603643417358,1.88325,3.52625,2.0035,2
14.762062072753906,1.9235,3.24575,1.9235,2
14.789366483688354,1.84325,3.16575,1.88325,2
14.816770076751707,2.2840000000000003,3.6065,2.204,2
14.844329357147217,2.0035,3.28575,2.0035,2
14.871726512908936,2.0035,3.16575,2.04375,2
14.900246381759644,1.9635,2.96525,2.04375,2
14.927689552307127,1.9235,3.6465,2.0035,2
14.955107688903809,2.0035,3.52625,2.0035,2
14.98265528678894,1.88325,3.887,1.9635,2
15.010283470153809,1.80325,3.48625,1.84325,0
15.03785276412964,1.9235,3.20575,2.0035,0
15.065381050109863,2.12375,3.44625,2.16375,0
15.092955827713013,1.84325,3.28575,2.0035,0
15.120399951934814,2.04375,3.76675,2.244,0
15.147966861724854,2.12375,3.76675,2.16375,0
15.17665958404541,1.9235,3.76675,2.0035,0
15.204257488250732,1.9635,3.6865,2.0035,0
15.23197627067566,2.0035,3.76675,2.0035,0
15.25958490371704,2.0035,3.406,2.0035,0
15.287031412124634,1.84325,2.72475,2.0035,0
15.314706087112429,1.9235,3.0855,2.12375,0
15.342562913894652,1.88325,2.68475,2.08375,0
15.370231628417969,1.76325,2.244,2.0035,0
15.398065567016602,1.84325,1.88325,1.9235,0
15.425854682922363,1.60275,1.9235,1.84325,0
15.453497171401978,1.60275,1.76325,1.80325,0
15.481258869171144,1.76325,1.683,1.84325,0
15.50900673866272,1.723,1.76325,1.88325,0
15.536670446395874,1.60275,1.84325,1.76325,0
15.564465761184692,1.723,1.9235,1.9235,0
15.59231162071228,1.60275,1.84325,1.88325,0
15.619981050491331,1.56275,1.723,1.84325,0
15.647828340530396,1.683,1.683,1.80325,0
15.6757915019989,1.60275,1.60275,1.76325,0
15.703574895858765,1.60275,1.683,1.84325,0
15.731352806091309,1.60275,1.60275,1.76325,0
15.759246110916138,1.60275,1.76325,1.9635,0
15.786971807479858,1.683,1.683,1.9235,0
15.814756393432615,1.76325,1.683,2.0035,0
15.842676877975464,1.683,1.683,2.16375,0
15.870517253875732,1.60275,1.76325,2.04375,0
15.898496627807615,1.60275,1.683,1.84325,0
15.926564455032349,1.52275,1.683,1.84325,0
15.95443868637085,1.48275,1.683,1.9235,0
15.982383966445925,1.48275,1.60275,1.84325,0
16.01035165786743,1.4425,1.683,1.9235,0
16.038268327713013,1.4425,1.683,1.84325,0
16.06627917289734,1.4025,1.60275,1.76325,0
16.09425663948059,1.52275,1.60275,1.76325,0
16.12220335006714,1.52275,1.60275,1.84325,0
16.15019416809082,1.4425,1.60275,1.84325,0
16.17821168899536,1.52275,1.643,1.76325,0
16.20626425743103,1.4425,1.683,1.84325,0
16.234477043151855,1.4025,1.683,1.80325,0
16.262493133544922,1.52275,1.683,1.80325,0
16.29046654701233,1.4425,1.60275,1.76325,0
16.31843137741089,1.4425,1.60275,1.683,0
16.34644389152527,1.52275,1.60275,1.60275,0
16.374431848526,1.4425,1.60275,1.723,0
16.402461528778076,1.4425,1.683,1.76325,0
16.430556297302246,1.52275,1.60275,1.723,0
16.45858407020569,1.48275,1.683,1.76325,0
16.486567497253418,1.4425,1.683,1.84325,0
16.51455330848694,1.52275,1.60275,1.80325,0
16.542601823806763,1.52275,1.683,1.84325,0
16.571186304092407,1.52275,1.643,1.80325,0
16.601471424102783,1.48275,1.683,1.84325,0
16.62984871864319,1.52275,1.683,1.84325,0
16.658026933670044,1.52275,1.723,1.88325,0
16.686156749725342,1.4425,1.683,1.84325,0
16.7144193649292,1.52275,1.76325,1.84325,0
16.742547273635864,1.52275,1.76325,1.84325,0
16.770568132400513,1.48275,1.723,1.84325,0
16.79872989654541,1.48275,1.683,1.84325,0
16.82749629020691,1.48275,1.683,1.84325,0
16.85558772087097,1.48275,1.76325,1.84325,0
16.883869171142578,1.4425,1.76325,1.84325,0
16.912030935287476,1.52275,1.76325,1.9235,0
16.940183639526367,1.52275,1.76325,1.9235,0
16.968295335769653,1.48275,1.683,1.84325,0
16.998191833496094,1.52275,1.683,1.84325,0
17.026694774627686,1.52275,1.683,1.80325,0
17.054717779159546,1.48275,1.683,1.84325,0
17.08290386199951,1.48275,1.683,1.9235,0
17.111090183258057,1.4425,1.76325,1.9235,0
17.139229774475098,1.52275,1.76325,1.9235,0
17.167527198791504,1.4425,1.76325,1.9235,0
17.195664644241333,1.52275,1.76325,1.84325,0
17.224493980407715,1.48275,1.683,1.84325,0
17.252653121948242,1.3625,1.76325,1.84325,0
17.28089690208435,1.48275,1.723,1.84325,0
17.309109210968018,1.4425,1.76325,1.84325,0
17.337239265441895,1.4425,1.76325,1.88325,0
17.36548113822937,1.52275,1.723,1.88325,0
17.393925666809082,1.52275,1.76325,1.9235,0
17.422199726104736,1.52275,1.76325,1.9235,0
17.450555562973022,1.4425,1.683,1.84325,0
17.47887372970581,1.52275,1.723,1.80325,0
17.50712013244629,1.48275,1.76325,1.84325,0
17.53537368774414,1.4425,1.683,1.84325,0
17.563875436782837,1.52275,1.76325,1.84325,0
17.59226942062378,1.52275,1.76325,1.88325,0
17.620511531829834,1.52275,1.76325,1.88325,0
17.648913383483887,1.52275,1.76325,1.84325,0
17.677263259887695,1.48275,1.76325,1.80325,0
17.705580234527588,1.52275,1.683,1.88325,0
17.734066009521484,1.48275,1.76325,1.84325,0
17.762484312057495,1.60275,1.723,1.84325,0
17.790771007537842,1.52275,1.76325,1.88325,0
17.81908655166626,1.4425,1.76325,1.84325,0
17.847445487976074,1.52275,1.723,1.84325,0
17.87592649459839,1.52275,1.723,1.84325,0
17.911062002182007,1.56275,1.683,1.76325,0
17.952192544937134,1.52275,1.683,1.84325,0
17.99330186843872,1.52275,1.76325,1.80325,0
18.021662950515747,1.52275,1.76325,1.9235,0
18.050272226333615,1.48275,1.76325,1.88325,0
18.078747749328613,1.52275,1.76325,1.84325,0
18.1074435710907,1.52275,1.76325,1.84325,0
18.135767936706543,1.4425,1.683,1.76325,0
18.164297819137573,1.56275,1.60275,1.84325,0
18.192819833755493,1.52275,1.683,1.84325,0
18.221137285232544,1.52275,1.683,1.9235,0
18.249598264694217,1.52275,1.683,1.9235,0
18.27819442749023,1.60275,1.723,1.84325,0
18.30671238899231,1.56275,1.723,1.84325,0
18.33517169952393,1.52275,1.683,1.76325,0
18.36372447013855,1.52275,1.643,1.76325,0
18.392289638519287,1.52275,1.683,1.76325,0
18.420929431915283,1.48275,1.683,1.80325,0
18.44951057434082,1.52275,1.683,1.84325,0
18.47816801071167,1.56275,1.76325,1.84325,0
18.50745415687561,1.56275,1.723,1.88325,0
18.535980701446533,1.4425,1.76325,1.84325,0
18.564645051956177,1.56275,1.683,1.80325,0
18.593308925628666,1.48275,1.683,1.76325,0
18.62186813354492,1.52275,1.683,1.84325,0
18.650541305541992,1.48275,1.683,1.84325,0
18.67919611930847,1.52275,1.76325,1.84325,0
18.707900524139404,1.52275,1.683,1.88325,0
18.73646068572998,1.48275,1.723,1.84325,0
18.7651309967041,1.52275,1.683,1.84325,0
18.79383540153503,1.52275,1.683,1.76325,0
18.822438716888428,1.52275,1.683,1.80325,0
18.851062059402462,1.48275,1.683,1.76325,0
18.879700422286987,1.52275,1.683,1.76325,0
18.909210920333862,1.4425,1.683,1.76325,0
18.937825679779053,1.52275,1.683,1.88325,0
18.966482400894165,1.52275,1.683,1.84325,0
18.995136976242065,1.52275,1.723,1.80325,0
19.02379322052002,1.56275,1.683,1.80325,0
19.052467584609985,1.52275,1.683,1.76325,0
19.081213235855103,1.56275,1.60275,1.76325,0
19.109949111938477,1.56275,1.683,1.76325,0
19.138566493988037,1.52275,1.683,1.84325,0
19.167312622070312,1.48275,1.683,1.80325,0
19.196310997009277,1.56275,1.683,1.76325,0
19.225045680999756,1.52275,1.683,1.80325,0
19.25376987457275,1.4425,1.683,1.76325,0
19.282490968704224,1.52275,1.60275,1.76325,0
19.31127953529358,1.56275,1.643,1.76325,0
19.340111017227173,1.56275,1.643,1.76325,0
19.36882209777832,1.52275,1.683,1.76325,0
19.397579431533813,1.56275,1.683,1.76325,0
19.42647695541382,1.52275,1.683,1.76325,0
19.455198764801025,1.52275,1.683,1.84325,0
19.48406457901001,1.52275,1.683,1.76325,0
19.514249324798584,1.60275,1.60275,1.76325,0
19.543166875839233,1.56275,1.683,1.76325,0
19.572084188461304,1.60275,1.683,1.84325,0
19.60096645355225,1.56275,1.643,1.84325,0
19.629950761795044,1.60275,1.683,1.76325,0
19.66223382949829,1.60275,1.683,1.76325,0
19.691384315490723,1.52275,1.683,1.80325,0
19.72023367881775,1.52275,1.683,1.76325,0
19.749951362609863,1.52275,1.60275,1.76325,0
19.77878975868225,1.52275,1.643,1.76325,0
19.80765271186829,1.56275,1.683,1.84325,0
19.836524486541748,1.52275,1.723,1.84325,0
19.86546206474304,1.56275,1.683,1.84325,0
19.894424200057983,1.60275,1.683,1.76325,0
19.92335271835327,1.56275,1.60275,1.80325,0
19.952268838882446,1.4425,1.60275,1.76325,0
19.981231212615967,1.52275,1.60275,1.76325,0
20.010327339172363,1.52275,1.683,1.76325,1
20.039215087890625,1.52275,1.683,1.76325,1
20.068180799484253,1.48275,1.683,1.80325,1
20.097124099731445,1.56275,1.683,1.76325,1
20.126197576522827,1.52275,1.683,1.84325,1
20.155128479003903,1.60275,1.683,1.76325,1
20.184296369552612,1.52275,1.683,1.76325,1
20.213291883468628,1.60275,1.683,1.683,1
20.242326736450195,1.56275,1.723,1.76325,1
20.271254301071167,1.723,1.76325,1.9235,1
20.30031132698059,1.56275,1.88325,2.0035,1
20.32936191558838,2.68475,2.60475,2.4442500000000003,1
20.35849976539612,2.72475,2.805,2.96525,1
20.387547254562374,2.72475,2.60475,3.80675,1
20.41671371459961,2.765,2.5645,3.6865,1
20.44595503807068,2.72475,2.805,2.96525,1
20.47519564628601,2.88525,2.96525,3.24575,1
20.504361867904663,2.92525,2.96525,3.44625,1
20.53359651565552,2.64475,2.88525,3.20575,1
20.563021421432495,2.5645,3.0455,3.52625,1
20.592994689941406,2.32425,2.64475,2.96525,1
20.6222186088562,2.16375,2.88525,2.805,1
20.651567459106445,2.2840000000000003,3.1255,3.0455,1
20.68091320991516,2.72475,3.0455,3.44625,1
20.710370540618896,2.5645,2.64475,3.44625,1
20.739580154418945,3.326,3.366,3.44625,1
20.76911234855652,2.92525,3.1255,3.20575,1
20.79847478866577,2.96525,3.20575,2.88525,1
20.82797145843506,2.64475,2.88525,2.765,1
20.857360363006592,2.5645,2.96525,2.805,1
20.886656284332275,2.4845,2.805,3.0455,1
20.91608762741089,2.40425,2.96525,2.88525,1
20.945654153823853,2.64475,2.96525,3.44625,1
20.97514271736145,2.96525,2.72475,3.0455,1
21.005497455596924,2.64475,2.805,2.5245,1
21.034857034683228,2.2840000000000003,2.5645,2.5245,1
21.064370155334473,2.16375,2.5245,2.72475,1
21.09402108192444,2.244,2.4845,2.72475,1
21.123461484909058,2.08375,2.2840000000000003,2.5245,1
21.152878522872925,1.88325,2.16375,2.244,1
21.182427644729614,1.9635,2.08375,2.12375,1
21.212220907211304,2.12375,2.12375,2.204,1
21.24189805984497,2.0035,2.16375,2.36425,1
21.27135181427002,2.244,2.0035,2.72475,1
21.301006317138672,1.84325,2.0035,2.204,1
21.33064866065979,1.683,2.204,2.0035,1
21.36036729812622,1.683,2.08375,1.9635,1
21.39006781578064,1.60275,2.0035,1.84325,1
21.419703483581543,1.76325,2.16375,1.9635,1
21.449528694152832,1.76325,2.08375,2.0035,1
21.47924041748047,1.60275,2.08375,1.80325,1
21.5092875957489,1.60275,2.36425,2.16375,1
21.538878917694092,1.683,2.40425,2.16375,1
21.568637371063232,1.80325,2.244,2.16375,1
21.59849190711975,2.04375,2.40425,2.0035,1
21.6282422542572,2.4442500000000003,2.96525,1.9635,1
21.658100843429565,2.204,2.72475,1.9235,1
21.68796157836914,2.12375,2.5645,2.2840000000000003,1
21.71787714958191,2.0035,2.68475,2.32425,1
21.747591495513916,2.12375,2.845,2.4845,1
21.777393579483032,2.04375,2.40425,2.16375,1
21.80710005760193,1.9235,2.5645,2.16375,1
21.836817264556885,1.683,2.4442500000000003,2.204,1
21.867379665374756,1.683,2.64475,2.244,1
21.897254943847656,1.84325,2.64475,2.244,1
21.927056789398193,2.40425,2.88525,2.5645,1
21.956873416900635,2.4845,3.1255,2.64475,1
21.986650466918945,2.32425,2.845,2.64475,1
22.016628742218018,2.16375,2.765,2.4442500000000003,1
22.046613693237305,2.244,2.805,2.0035,1
22.076647996902462,1.9235,2.88525,2.32425,1
22.106590270996097,2.04375,2.88525,2.244,1
22.13650631904602,2.36425,2.765,2.244,1
22.166454315185547,2.204,3.1255,2.32425,1
22.19637370109558,2.40425,3.00525,2.244,1
22.226470232009888,2.16375,3.406,2.12375,1
22.256505012512207,2.244,2.88525,2.16375,1
22.28734350204468,2.12375,2.72475,2.12375,1
22.31743288040161,2.0035,2.72475,2.16375,1
22.347508668899536,1.9235,2.805,2.2840000000000003,1
22.377664804458615,1.76325,2.805,2.08375,1
22.407745361328125,1.76325,2.88525,2.12375,1
22.437936305999756,1.76325,2.64475,2.40425,1
22.468018770217896,1.56275,2.72475,2.16375,1
22.498214960098267,1.643,2.4845,2.12375,1
22.528390884399418,1.84325,2.88525,2.244,1
22.55864667892456,1.52275,2.5645,1.9635,1
22.588881969451904,1.683,2.40425,2.0035,1
22.619139671325684,1.60275,2.32425,1.9635,1
22.65204930305481,1.723,2.32425,2.04375,1
22.68240451812744,1.84325,2.16375,2.244,1
22.71284008026123,1.9235,1.9235,2.0035,1
22.74318909645081,1.84325,2.0035,2.08375,1
22.77349543571472,1.84325,2.244,2.08375,1
22.80361604690552,1.76325,2.08375,1.80325,1
22.833999395370483,1.76325,2.04375,1.76325,1
22.864339113235474,1.9235,2.16375,1.76325,1
22.89478039741516,1.76325,2.244,1.9635,1
22.925133228302,1.60275,2.2840000000000003,1.88325,1
22.955345392227173,1.9235,2.204,2.0035,1
22.985820055007935,1.84325,2.204,1.9235,1
23.016039848327637,1.683,2.08375,2.16375,1
23.046472311019897,1.84325,2.16375,2.244,1
23.076836585998535,1.60275,1.9235,2.244,1
23.107120275497437,1.76325,2.0035,2.32425,1
23.137441635131836,2.16375,2.12375,2.244,1
23.1688392162323,1.9235,1.9235,2.08375,1
23.1992244720459,1.76325,1.9235,2.2840000000000003,1
23.230112075805664,1.80325,1.88325,1.9635,1
23.260697603225708,1.683,1.84325,1.9635,1
23.29111909866333,1.56275,1.9235,1.9635,1
23.321571826934814,1.60275,2.244,1.9235,1
23.35210418701172,1.84325,2.16375,2.04375,1
23.382588624954224,2.16375,2.08375,2.2840000000000003,1
23.4132137298584,2.08375,2.244,2.32425,1
23.44370698928833,2.0035,2.32425,2.244,1
23.47421932220459,1.88325,2.08375,2.2840000000000003,1
23.504723072052,1.80325,2.12375,2.2840000000000003,1
23.535277366638184,1.683,2.12375,2.16375,1
23.566121339797977,1.60275,2.0035,2.0035,1
23.65890669822693,1.88325,2.04375,2.32425,1
23.689239263534542,1.9635,2.0035,2.244,1
23.719780206680294,1.9635,2.0035,2.204,1
23.75050926208496,1.9235,2.0035,2.40425,1
23.781208753585815,2.0035,2.204,2.32425,1
23.81185746192932,1.88325,2.12375,2.2840000000000003,1
23.8426296710968,1.76325,2.12375,2.12375,1
23.87328028678894,1.60275,2.08375,2.08375,1
23.903828382492065,1.60275,2.0035,2.32425,1
23.935329914093018,1.60275,1.9635,2.244,1
23.96611595153809,1.683,2.0035,2.32425,1
23.997467517852783,1.643,1.9635,2.64475,1
24.0281765460968,1.9235,2.204,2.64475,1
24.05896472930908,2.0035,2.244,2.805,1
24.089640140533447,1.9235,2.16375,2.4442500000000003,1
24.120315551757812,1.683,2.08375,2.4845,1
24.151067972183228,1.76325,2.12375,2.204,1
24.18194079399109,1.683,2.0035,2.12375,1
24.212615966796875,1.76325,1.9635,2.04375,1
24.24337482452393,1.9635,2.0035,2.204,1
24.274108409881592,1.9635,1.9635,2.16375,1
24.30510973930359,1.84325,2.08375,2.244,1
24.33585286140442,1.683,2.0035,2.08375,1
24.367352724075317,1.683,2.0035,2.2840000000000003,1
24.39824676513672,1.76325,1.9235,2.32425,1
24.429192543029785,1.683,2.04375,2.16375,1
24.46000838279724,1.723,2.0035,2.244,1
24.490751028060913,1.723,2.12375,2.16375,1
24.521665573120117,1.683,2.08375,2.16375,1
24.552526473999023,1.84325,2.0035,2.08375,1
24.583636045455933,1.643,2.0035,2.08375,1
24.61462020874023,1.76325,2.08375,2.32425,1
24.64581561088562,1.9235,2.12375,2.36425,1
24.67672085762024,1.84325,2.16375,2.16375,1
24.7075777053833,1.80325,2.4442500000000003,2.16375,1
24.738471031188965,1.84325,2.204,2.2840000000000003,1
24.7700412273407,2.04375,2.2840000000000003,2.4442500000000003,1
24.801013231277462,2.16375,2.32425,2.36425,1
24.831957578659058,2.0035,2.204,2.04375,1
24.863022327423096,1.84325,2.244,1.9235,1
24.894156455993652,1.9635,2.244,1.9635,1
24.925253868103027,2.0035,2.04375,1.9235,1
24.956236124038696,2.36425,2.0035,2.244,1
24.98716688156128,2.16375,2.0035,2.12375,1
25.018332719802856,1.84325,2.0035,2.40425,2
25.049396514892575,2.04375,2.244,2.60475,2
25.080463647842407,2.32425,2.12375,2.60475,2
25.111603260040283,2.04375,2.0035,2.5645,2
25.142730951309204,2.244,2.04375,2.4845,2
25.174455165863037,2.04375,2.08375,2.765,2
25.205492734909058,2.32425,2.12375,3.366,2
25.23670983314514,2.204,2.12375,3.00525,2
25.267848014831543,2.04375,2.204,2.72475,2
25.29900336265564,1.9235,1.9635,2.32425,2
25.3303542137146,1.643,1.80325,1.9235,2
25.36165142059326,1.52275,1.88325,1.683,2
25.393017292022705,1.4425,2.32425,1.56275,2
25.424206018447876,1.32225,2.64475,1.52275,2
25.45555281639099,1.28225,3.28575,1.4425,2
25.48672914505005,1.32225,3.24575,1.56275,2
25.518107175827023,1.162,3.52625,1.52275,2
25.54939579963684,1.20225,3.76675,1.643,2
25.581432580947876,1.3625,4.40775,1.84325,2
25.61524438858032,1.32225,4.56825,1.84325,2
25.646731853485107,1.52275,4.488,1.9235,2
25.678379774093628,2.0035,4.96875,1.84325,2
25.709930419921875,2.204,5.44975,2.16375,2
25.74125075340271,2.12375,5.2895,2.204,2
25.772661209106445,2.12375,5.52975,2.2840000000000003,2
25.804025411605835,2.16375,5.20925,2.244,2
25.83555054664612,2.04375,4.56825,2.244,2
25.867006540298465,2.204,5.089,2.36425,2
25.898589372634888,2.16375,4.32775,2.32425,2
25.93027067184448,2.40425,4.7685,2.244,2
25.96194958686829,2.08375,5.2895,2.08375,2
25.99423241615295,2.16375,4.92875,2.244,2
26.02590012550354,2.4442500000000003,5.4095,2.40425,2
26.057397603988647,2.5645,5.3295,2.40425,2
26.088976860046387,2.2840000000000003,5.48975,2.4442500000000003,2
26.120508909225464,2.40425,5.3695,2.40425,2
26.152173042297363,2.36425,5.2895,2.5645,2
26.18383002281189,2.2840000000000003,5.20925,2.4845,2
26.21561360359192,2.36425,5.2895,2.4845,2
26.247361660003666,2.32425,5.57,2.68475,2
26.279176235198975,2.2840000000000003,4.60825,2.4845,2
26.310930728912354,2.4845,4.28775,2.40425,2
26.342745780944824,2.32425,4.488,2.32425,2
26.374496936798096,2.04375,4.00725,2.32425,2
26.407110691070557,2.204,3.927,2.36425,2
26.438838720321655,2.0035,4.1675,2.244,2
26.470521688461304,1.9235,3.80675,2.5645,2
26.502387285232544,2.08375,3.887,2.5645,2
26.534260988235474,2.0035,3.6865,2.36425,2
26.56614065170288,2.08375,3.76675,2.32425,2
26.59811305999756,2.08375,3.6865,2.32425,2
26.63018536567688,2.08375,4.12725,2.32425,2
26.662278175354004,2.16375,4.12725,2.32425,2
26.69431471824646,2.32425,4.08725,2.244,2
26.72645902633667,1.9235,3.76675,2.244,2
26.758355140686035,2.0035,3.76675,2.08375,2
26.79029226303101,1.84325,3.887,2.0035,2
26.822944164276123,2.08375,4.40775,2.32425,2
26.85490608215332,2.16375,3.80675,2.244,2
26.88681435585022,2.08375,3.6065,2.32425,2
26.918809175491333,2.04375,3.44625,2.204,2
26.95078158378601,1.84325,3.00525,2.16375,2
26.982933282852173,2.08375,3.366,2.16375,2
27.01508092880249,2.04375,3.1255,2.16375,2
27.047095775604248,2.12375,3.52625,2.244,2
27.0791540145874,1.88325,3.00525,2.12375,2
27.111248254776,2.08375,3.0455,2.12375,2
27.14339852333069,1.9235,3.0855,2.08375,2
27.175551891326904,2.12375,3.6065,2.204,2
27.20762085914612,2.244,3.927,2.244,2
27.24034833908081,2.36425,3.80675,2.40425,2
27.27275347709656,2.16375,3.6065,2.244,2
27.30484700202942,1.9235,3.44625,2.16375,2
27.336920261383057,2.244,4.32775,2.244,2
27.369117259979248,1.9235,3.927,2.16375,2
27.401336669921875,1.9235,3.56625,2.08375,2
27.43349552154541,1.9235,3.52625,2.08375,2
27.465786457061768,2.0035,3.366,2.16375,2
27.498087882995605,1.9635,3.20575,2.12375,2
27.530386924743652,1.84325,3.52625,1.9235,2
27.56272006034851,2.0035,3.6465,2.244,2
27.595189094543457,2.04375,4.08725,2.16375,2
27.62758469581604,1.84325,4.00725,2.0035,2
27.660521507263184,1.80325,3.56625,1.9235,2
27.69285297393799,1.683,3.76675,1.9235,2
27.726104497909542,2.0035,4.40775,2.244,2
27.75919389724731,2.04375,4.60825,2.32425,2
27.792519092559814,2.244,4.5280000000000005,2.36425,2
27.825796842575073,2.16375,3.927,2.16375,2
27.859009742736816,1.9235,3.20575,2.08375,2
27.89229989051819,1.76325,3.1255,1.9235,2
27.925578117370605,2.0035,3.44625,2.12375,2
27.958919286727905,2.12375,3.28575,2.16375,2
27.992310523986816,1.88325,2.96525,2.08375,2
28.02569460868835,1.9635,3.48625,2.244,2
28.05913758277893,2.08375,3.6065,2.32425,2
28.092628002166748,1.88325,3.44625,2.16375,2
28.12606167793274,1.9235,3.28575,2.08375,2
28.15937352180481,1.84325,3.326,2.08375,2
28.19275975227356,1.723,3.6865,2.04375,2
28.226262092590332,2.32425,4.32775,2.4442500000000003,2
28.259729146957397,2.244,3.887,2.32425,2
28.29326367378235,1.9235,3.84675,2.244,2
28.326738595962524,1.76325,3.56625,2.0035,2
28.360280513763428,1.80325,3.24575,2.0035,2
28.393869638442993,2.0035,3.16575,2.16375,2
28.42729544639587,2.08375,3.6465,2.244,2
28.460795879364017,1.84325,3.20575,2.204,2
28.494425296783447,1.80325,3.20575,2.16375,2
28.529035568237305,2.0035,3.20575,2.204,2
28.562783002853394,2.04375,3.24575,2.244,2
28.598352432250977,1.9235,3.0455,2.08375,2
28.632099390029907,1.9635,3.0455,2.204,2
28.66596484184265,2.0035,3.0455,2.204,2
28.69953465461731,1.76325,3.0455,2.16375,2
28.73310685157776,1.723,2.88525,2.0035,2
28.766794443130493,1.76325,2.845,2.08375,2
28.800331592559814,1.84325,3.28575,2.08375,2
28.834120988845825,1.76325,3.1255,2.08375,2
28.86775922775269,1.723,3.0455,2.04375,2
28.90245366096497,1.88325,3.6065,2.244,2
28.93611717224121,1.9635,3.52625,2.16375,2
28.970417976379395,1.88325,3.44625,2.204,2
29.004026174545288,2.0035,3.84675,2.244,2
29.03766894340515,2.08375,4.12725,2.32425,2
29.071340799331665,1.88325,3.6065,2.08375,2
29.104984760284424,1.88325,3.6865,2.16375,2
29.138681411743164,1.88325,3.6465,2.2840000000000003,2
29.172390699386597,2.244,3.84675,2.2840000000000003,2
29.20626211166382,2.2840000000000003,5.2895,2.32425,2
29.24018168449402,2.08375,4.7685,2.08375,2
29.274331092834473,2.16375,4.32775,2.08375,2
29.30814814567566,2.0035,4.5280000000000005,2.0035,2
29.342085599899292,1.88325,4.08725,1.9235,2
29.3759446144104,1.9235,3.76675,1.9235,2
29.41002130508423,1.80325,3.6865,1.76325,2
29.44382071495056,1.9235,3.16575,1.88325,2
29.47786784172058,2.08375,3.28575,1.88325,2
29.51175022125244,2.244,3.326,2.0035,2
29.54578757286072,2.04375,3.44625,2.0035,2
29.579846143722538,1.9235,3.44625,1.88325,2
29.61397814750671,2.32425,4.08725,2.0035,2
29.64794015884399,2.40425,3.84675,2.08375,2
29.682100772857662,2.12375,3.76675,1.88325,2
29.71612000465393,2.0035,3.76675,1.80325,2
29.75021004676819,1.88325,3.84675,1.9635,2
29.78427243232727,2.0035,3.80675,2.0035,2
29.818310499191284,2.12375,4.00725,2.0035,2
29.853031396865845,2.16375,4.08725,2.08375,2
29.88699769973755,2.244,4.00725,2.16375,2
29.92100429534912,2.4845,4.00725,2.08375,2
29.9550039768219,2.16375,3.406,1.9635,2
29.98906946182251,2.0035,3.16575,1.9235,2
30.02307963371277,2.04375,3.52625,1.9635,0
30.05713582038879,2.16375,3.1255,2.04375,0
30.091236352920532,1.9235,3.28575,2.08375,0
30.125504970550537,2.0035,3.1255,1.9235,0
30.159618854522705,1.9235,2.5645,1.9235,0
30.193844079971313,1.76325,2.204,1.9235,0
30.22803831100464,2.16375,2.92525,2.16375,0
30.26238369941711,2.04375,3.0455,2.08375,0
30.297361850738525,1.80325,2.32425,2.0035,0
30.33159589767456,1.683,2.08375,1.84325,0
30.365939140319824,1.60275,1.84325,1.84325,0
30.400137901306152,1.683,1.84325,1.84325,0
30.43446636199951,1.683,1.84325,1.9235,0
30.46875286102295,1.56275,1.84325,1.9235,0
30.50297236442566,1.60275,1.80325,1.9235,0
30.537177562713623,1.60275,1.683,1.88325,0
30.57147455215454,1.60275,1.683,1.88325,0
30.605790376663208,1.48275,1.60275,1.84325,0
30.640066385269165,1.48275,1.60275,1.84325,0
30.674466371536255,1.52275,1.56275,1.76325,0
30.708881855010983,1.52275,1.60275,1.80325,0
30.743849515914917,1.4425,1.60275,1.76325,0
30.778220891952515,1.52275,1.56275,1.76325,0
30.812665224075317,1.52275,1.60275,1.76325,0
30.84704971313477,1.4425,1.60275,1.76325,0
30.881691455841064,1.4025,1.60275,1.76325,0
30.916167736053467,1.3625,1.60275,1.76325,0
30.950584888458252,1.3625,1.60275,1.76325,0
30.985057830810547,1.4425,1.643,1.76325,0
31.01946258544922,1.4425,1.643,1.80325,0
31.05391311645508,1.52275,1.60275,1.80325,0
31.08816623687744,1.48275,1.683,1.80325,0
31.122580528259277,1.4425,1.683,1.80325,0
31.156979084014893,1.52275,1.683,1.76325,0
31.192171573638916,1.48275,1.76325,1.80325,0
31.226683616638184,1.52275,1.683,1.76325,0
31.261094570159912,1.48275,1.683,1.76325,0
31.29580283164978,1.4425,1.60275,1.683,0
31.3304500579834,1.4425,1.60275,1.76325,0
31.36566972732544,1.4425,1.60275,1.76325,0
31.400192737579346,1.3625,1.683,1.76325,0
31.434760570526123,1.3625,1.723,1.80325,0
31.469316482543945,1.4025,1.60275,1.84325,0
31.503703117370605,1.52275,1.60275,1.80325,0
31.538311004638672,1.48275,1.683,1.76325,0
31.572771787643433,1.52275,1.60275,1.76325,0
31.6072940826416,1.4425,1.643,1.80325,0
31.644766569137573,1.52275,1.683,1.76325,0
31.680522203445435,1.48275,1.60275,1.80325,0
31.715298891067505,1.4425,1.643,1.84325,0
31.750030040740967,1.3625,1.60275,1.76325,0
31.784695863723755,1.4425,1.60275,1.84325,0
31.819306135177612,1.4425,1.60275,1.84325,0
31.853991270065308,1.4425,1.683,1.84325,0
31.888564825057983,1.48275,1.683,1.84325,0
31.923123598098755,1.48275,1.683,1.80325,0
31.95779275894165,1.52275,1.60275,1.76325,0
31.992367029190063,1.52275,1.60275,1.683,0
32.02702212333679,1.52275,1.60275,1.76325,0
32.061598777770996,1.48275,1.683,1.76325,0
32.09698247909546,1.4425,1.643,1.84325,0
32.131683111190796,1.4025,1.60275,1.76325,0
32.1663773059845,1.4425,1.683,1.84325,0
32.201029777526855,1.4425,1.643,1.76325,0
32.235721826553345,1.48275,1.643,1.76325,0
32.27039408683777,1.4425,1.683,1.84325,0
32.30497145652771,1.4425,1.683,1.84325,0
32.33963704109192,1.4425,1.683,1.84325,0
32.37469792366028,1.4425,1.643,1.80325,0
32.409523010253906,1.52275,1.643,1.723,0
32.44429683685303,1.4425,1.60275,1.76325,0
32.47906947135925,1.48275,1.60275,1.80325,0
32.51404047012329,1.4025,1.60275,1.76325,0
32.54962754249573,1.4025,1.683,1.84325,0
32.584409952163696,1.4025,1.683,1.84325,0
32.61926198005676,1.4425,1.683,1.84325,0
32.65428566932678,1.4425,1.60275,1.84325,0
32.68920826911926,1.4425,1.643,1.84325,0
32.72400736808777,1.4425,1.643,1.80325,0
32.75879955291748,1.48275,1.683,1.80325,0
32.79361319541931,1.4425,1.683,1.84325,0
32.8283805847168,1.52275,1.683,1.84325,0
32.86328864097595,1.4425,1.643,1.84325,0
32.89826512336731,1.4425,1.683,1.84325,0
32.93323564529419,1.4425,1.60275,1.84325,0
32.968125104904175,1.4425,1.60275,1.84325,0
33.003639698028564,1.4425,1.683,1.88325,0
33.03843903541565,1.48275,1.683,1.84325,0
33.07314991950989,1.4425,1.683,1.80325,0
33.107903718948364,1.48275,1.643,1.76325,0
33.14275121688843,1.52275,1.643,1.76325,0
33.177815675735474,1.48275,1.60275,1.76325,0
33.212634801864624,1.48275,1.60275,1.84325,0
33.24759364128113,1.48275,1.643,1.84325,0
33.28261613845825,1.4425,1.643,1.84325,0
33.317643880844116,1.4425,1.683,1.80325,0
33.352585315704346,1.48275,1.60275,1.76325,0
33.3874146938324,1.52275,1.60275,1.80325,0
33.42244076728821,1.48275,1.683,1.80325,0
33.4582040309906,1.48275,1.683,1.76325,0
33.49315428733826,1.52275,1.683,1.80325,0
33.52821493148804,1.4425,1.683,1.76325,0
33.56320118904114,1.48275,1.60275,1.76325,0
33.59832525253296,1.4425,1.643,1.80325,0
33.63337230682373,1.4425,1.60275,1.76325,0
33.668479919433594,1.48275,1.683,1.9235,0
33.70350933074951,1.52275,1.683,1.9235,0
33.73851704597473,1.48275,1.683,1.80325,0
33.77348589897156,1.52275,1.643,1.80325,0
33.80842185020447,1.52275,1.643,1.76325,0
33.84450578689575,1.52275,1.60275,1.80325,0
33.879637479782104,1.48275,1.643,1.84325,0
33.915775299072266,1.4425,1.683,1.84325,0
33.95097804069519,1.4425,1.683,1.80325,0
33.986064434051514,1.4425,1.643,1.84325,0
34.0210862159729,1.48275,1.60275,1.84325,0
34.05612921714783,1.4425,1.643,1.76325,0
34.09122157096863,1.4425,1.643,1.76325,0
34.1264283657074,1.52275,1.683,1.80325,0
34.161505937576294,1.52275,1.643,1.80325,0
34.19657874107361,1.48275,1.60275,1.84325,0
34.231775999069214,1.48275,1.643,1.76325,0
34.26698040962219,1.4425,1.60275,1.76325,0
34.302202224731445,1.52275,1.60275,1.76325,0
34.337323904037476,1.52275,1.60275,1.84325,0
34.37254285812378,1.48275,1.683,1.84325,0
34.40760898590088,1.4425,1.683,1.84325,0
34.442758321762085,1.52275,1.643,1.76325,0
34.47797107696533,1.48275,1.60275,1.76325,0
34.5131995677948,1.4425,1.60275,1.76325,0
34.54849934577942,1.4425,1.643,1.80325,0
34.58445715904236,1.4425,1.683,1.80325,0
34.62129259109497,1.4425,1.683,1.80325,0
34.65698981285095,1.4425,1.643,1.76325,0
34.6923291683197,1.4425,1.643,1.76325,0
34.72762989997864,1.4425,1.60275,1.76325,0
34.762858629226685,1.48275,1.60275,1.76325,0
34.79825258255005,1.4425,1.683,1.76325,0
34.834238052368164,1.4425,1.683,1.84325,0
34.86946773529053,1.48275,1.643,1.84325,0
34.9046106338501,1.48275,1.60275,1.76325,0
34.93979072570801,1.4425,1.60275,1.76325,0
34.975242376327515,1.4425,1.683,1.80325,0
35.010692834854126,1.52275,1.683,1.76325,1
35.04603028297424,1.48275,1.643,1.76325,1
35.08138465881348,1.4425,1.683,1.84325,1
35.116692543029785,1.3625,1.60275,1.76325,1
35.151989221572876,1.4425,1.683,1.76325,1
35.18726420402527,1.52275,1.683,1.84325,1
35.22251033782959,1.4425,1.80325,1.76325,1
35.257912397384644,1.9635,1.9235,1.9235,1
35.294108867645264,2.08375,2.2840000000000003,1.84325,1
35.32955074310303,2.5645,2.5245,2.08375,1
35.365166425704956,2.765,2.5645,2.60475,1
35.4005765914917,2.88525,2.64475,3.0455,1
35.43600511550903,2.88525,2.64475,2.805,1
35.471535444259644,3.1255,2.5645,2.805,1
35.50697660446167,2.92525,2.40425,2.4845,1
35.54255795478821,3.00525,3.20575,2.32425,1
35.57821345329285,2.72475,2.72475,2.4442500000000003,1
35.613990783691406,2.60475,2.72475,2.5645,1
35.64966678619385,2.64475,2.64475,2.5245,1
35.68531322479248,2.5645,2.64475,2.5645,1
35.72086691856384,3.00525,2.64475,2.72475,1
35.75716733932495,2.2840000000000003,2.5645,2.4442500000000003,1
35.79273295402527,2.36425,2.64475,2.60475,1
35.828439712524414,2.96525,2.4845,2.805,1
35.86428618431091,3.28575,2.805,2.64475,1
35.90012168884277,2.88525,2.845,2.64475,1
35.935829401016235,2.5645,2.5645,3.0455,1
35.97162199020386,2.845,2.4845,2.805,1
36.007336378097534,2.805,2.40425,2.5645,1
36.04315662384033,2.64475,2.64475,2.32425,1
36.078917264938354,2.32425,2.64475,2.12375,1
36.11476516723633,2.0035,2.4845,2.0035,1
36.15065860748291,1.84325,2.244,1.9635,1
36.18660068511963,2.12375,2.16375,2.12375,1
36.22307467460632,2.204,2.16375,2.32425,1
36.25888252258301,2.04375,2.204,2.12375,1
36.29469323158264,2.0035,2.2840000000000003,2.0035,1
36.33059883117676,2.0035,2.36425,2.08375,1
36.36660051345825,2.204,2.5245,2.244,1
36.40249490737915,2.08375,2.204,2.32425,1
36.43845558166504,2.2840000000000003,2.08375,2.40425,1
36.47435808181763,2.36425,2.32425,2.32425,1
36.51039457321167,2.244,2.244,2.244,1
36.54632592201233,2.4442500000000003,2.04375,2.40425,1
36.58238697052002,2.36425,2.12375,2.60475,1
36.6184868812561,2.5645,2.244,2.16375,1
36.654486894607544,2.4442500000000003,2.36425,2.36425,1
36.69121098518371,2.244,2.16375,2.32425,1
36.72723436355591,2.244,2.244,2.16375,1
36.76325821876526,2.204,2.16375,2.32425,1
36.79935097694397,2.16375,2.0035,2.12375,1
36.83542275428772,2.204,2.4845,2.32425,1
36.87148976325989,2.08375,2.204,2.0035,1
36.90754294395447,2.04375,2.04375,2.08375,1
36.943705558776855,2.244,1.88325,2.0035,1
36.979780197143555,1.76325,1.9235,2.16375,1
37.0161714553833,1.80325,2.204,2.12375,1
37.052289724349976,2.0035,2.08375,1.76325,1
37.088351011276245,2.244,1.9235,1.9235,1
37.124579429626465,2.32425,2.244,1.84325,1
37.1614031791687,2.16375,2.08375,1.80325,1
37.1976044178009,2.4845,2.40425,1.88325,1
37.23393273353577,2.4845,2.32425,1.84325,1
37.27012014389038,2.4442500000000003,2.0035,1.723,1
37.30634593963623,2.4442500000000003,2.204,2.04375,1
37.34268355369568,2.40425,1.88325,1.88325,1
37.37891888618469,2.32425,1.9635,1.80325,1
37.41522765159607,2.204,2.0035,1.9235,1
37.45152926445007,2.16375,1.84325,1.76325,1
37.48770093917847,2.5245,2.0035,2.04375,1
37.52394223213196,2.32425,1.9235,2.204,1
37.560362815856934,2.12375,1.9235,1.84325,1
37.59883213043213,2.16375,1.80325,2.04375,1
37.635743618011475,2.244,1.9235,2.08375,1
37.672163009643555,2.244,1.9635,1.76325,1
37.70868468284607,2.4442500000000003,2.0035,1.723,1
37.74516296386719,2.244,2.0035,1.80325,1
37.78160738945007,2.16375,2.0035,1.9635,1
37.81805229187012,2.244,1.9235,2.12375,1
37.85450839996338,2.12375,1.88325,2.04375,1
37.89090013504028,1.80325,1.88325,2.0035,1
37.92741823196411,2.0035,1.84325,2.244,1
37.96391677856445,2.36425,2.0035,2.2840000000000003,1
38.000526905059814,2.244,1.9235,2.2840000000000003,1
38.037113666534424,2.64475,1.9235,2.4845,1
38.07362508773804,2.36425,1.9235,2.244,1
38.111002683639526,2.805,2.12375,2.08375,1
38.147560596466064,2.40425,2.04375,2.4845,1
38.1841197013855,2.5245,2.32425,2.4442500000000003,1
38.22068929672241,2.72475,2.40425,3.1255,1
38.25726366043091,2.5245,2.68475,2.72475,1
38.293989181518555,2.4845,2.2840000000000003,2.32425,1
38.330626010894775,2.40425,2.40425,2.16375,1
38.367408752441406,2.08375,2.32425,1.9235,1
38.40410256385803,2.08375,2.204,1.84325,1
38.4407103061676,2.40425,2.12375,1.80325,1
38.47746968269348,2.32425,2.244,1.84325,1
38.51439905166626,2.0035,2.08375,2.0035,1
38.55115103721619,2.60475,2.08375,2.765,1
38.58881115913391,2.805,2.16375,2.5645,1
38.62568378448486,2.5245,2.16375,2.40425,1
38.66249227523804,2.5245,2.16375,3.00525,1
38.69936561584473,2.72475,2.244,2.64475,1
38.73617148399353,2.805,2.12375,2.2840000000000003,1
38.77296447753906,2.68475,2.16375,2.40425,1
38.81004786491394,2.5245,2.08375,2.32425,1
38.84687399864197,2.40425,2.40425,2.08375,1
38.88391852378845,2.5645,2.12375,1.9235,1
38.92081952095032,2.244,2.08375,2.0035,1
38.957661390304565,2.12375,2.16375,2.04375,1
38.994696617126465,2.0035,2.04375,1.9235,1
39.03168535232544,2.16375,2.08375,1.76325,1
39.069514989852905,2.244,2.08375,1.84325,1
39.10719680786133,2.36425,1.9235,1.60275,1
39.144288539886475,2.244,1.80325,1.60275,1
39.181453466415405,2.12375,2.08375,2.08375,1
39.218472480773926,2.04375,1.9235,1.88325,1
39.25554800033569,2.0035,1.76325,1.683,1
39.292622327804565,1.9235,1.723,1.52275,1
39.32965445518494,2.04375,1.88325,1.9235,1
39.36678314208984,2.16375,1.723,1.9235,1
39.4037868976593,1.84325,1.60275,1.88325,1
39.44084024429321,1.9635,1.643,1.643,1
39.47815799713135,2.04375,1.60275,1.60275,1
39.5153214931488,2.04375,1.683,1.76325,1
39.553478717803955,2.08375,1.56275,1.80325,1
39.5914363861084,1.9635,1.56275,1.60275,1
39.62866282463074,2.08375,1.683,1.683,1
39.66603064537048,2.204,1.683,1.9235,1
39.70319676399231,2.40425,1.683,1.80325,1
39.74041366577149,2.12375,1.723,1.9235,1
39.77786207199097,2.08375,1.683,1.9635,1
39.8151261806488,2.0035,1.60275,2.244,1
39.85231399536133,1.88325,1.683,2.244,1
39.88957333564758,1.723,1.683,2.04375,1
39.92684078216553,1.723,1.60275,2.0035,1
39.964014291763306,1.84325,1.683,2.08375,1
40.0013473033905,1.76325,1.52275,2.0035,2
40.03933930397034,1.60275,1.60275,1.52275,2
40.07663559913635,1.52275,1.56275,1.4425,2
40.11398816108704,1.643,1.683,1.4425,2
40.15117955207825,1.683,1.60275,1.3625,2
40.18847918510437,1.80325,1.52275,1.28225,2
40.22592377662659,1.56275,1.48275,1.122,2
40.26316952705383,1.60275,1.4425,1.20225,2
40.300628900527954,1.4425,1.4425,1.20225,2
40.33808517456055,1.52275,1.4425,1.20225,2
40.37539696693421,1.56275,1.4425,1.32225,2
40.412710189819336,1.56275,1.4425,1.20225,2
40.450146198272705,1.52275,1.60275,1.20225,2
40.48754358291626,1.52275,1.56275,1.162,2
40.525940895080566,1.4425,1.56275,1.20225,2
40.56316876411438,1.4425,1.9235,1.28225,2
40.60093903541565,1.3625,2.08375,1.28225,2
40.63842010498047,1.48275,2.244,1.3625,2
40.67743158340454,1.643,3.44625,1.3625,2
40.71543049812317,1.683,4.2475000000000005,1.60275,2
40.75297856330872,2.0035,4.488,1.683,2
40.79047679901123,2.32425,5.2895,1.9235,2
40.82805299758911,2.72475,5.73025,2.04375,2
40.86593151092529,2.4845,5.81025,2.08375,2
40.903465270996094,2.204,5.81025,2.0035,2
40.941126585006714,2.2840000000000003,5.77025,1.683,2
40.97875905036926,2.2840000000000003,5.44975,1.84325,2
41.01736044883728,2.0035,4.8085,1.84325,2
41.05492854118347,2.16375,5.20925,2.08375,2
41.0926570892334,2.244,4.488,2.0035,2
41.13047170639038,2.244,3.967,2.0035,2
41.168171644210815,2.204,4.8085,2.12375,2
41.20601439476013,2.16375,4.32775,2.16375,2
41.24384355545044,2.0035,4.1675,2.04375,2
41.281697511672974,2.244,4.2075000000000005,1.9635,2
41.31947660446167,2.244,4.8085,2.12375,2
41.35732984542847,2.16375,4.64825,1.9235,2
41.39519238471985,2.0035,3.927,1.76325,2
41.43313956260681,2.08375,4.2475000000000005,1.9235,2
41.471017360687256,2.08375,3.84675,1.84325,2
41.50887894630432,2.16375,3.76675,1.9235,2
41.54771375656128,2.2840000000000003,3.44625,1.9235,2
41.585620164871216,2.2840000000000003,3.887,1.80325,2
41.62356424331665,2.2840000000000003,3.6465,1.88325,2
41.66181182861328,2.4442500000000003,3.76675,1.84325,2
41.699838161468506,2.40425,3.20575,1.9235,2
41.737943172454834,2.5645,3.326,1.84325,2
41.77590870857239,2.244,3.406,1.723,2
41.8139533996582,2.5245,3.6065,1.9235,2
41.85192632675171,2.40425,3.28575,1.88325,2
41.89004683494568,2.204,3.326,1.76325,2
41.92814564704895,2.12375,3.24575,1.683,2
41.966381311416626,2.244,2.92525,1.683,2
42.00439643859863,2.32425,3.28575,1.88325,2
42.04256892204285,2.204,3.20575,1.683,2
42.08093190193176,2.204,3.52625,1.84325,2
42.11907625198364,2.244,3.366,1.84325,2
42.157140016555786,2.244,3.52625,1.9235,2
42.19525337219238,2.0035,3.0855,1.76325,2
42.23345732688904,1.9635,2.96525,1.60275,2
42.27162718772888,2.204,3.00525,1.84325,2
42.309977531433105,2.32425,3.0455,1.76325,2
42.34827375411987,2.08375,3.28575,1.9235,2
42.38649773597717,2.16375,3.56625,1.88325,2
42.42473649978638,2.16375,4.32775,1.80325,2
42.46293807029724,2.08375,3.6865,1.76325,2
42.50124931335449,1.723,3.76675,1.60275,2
42.53946590423584,2.0035,3.326,1.683,2
42.5779287815094,1.9235,3.16575,1.683,2
42.616575717926025,1.9235,3.28575,1.683,2
42.65497159957886,2.16375,3.887,1.84325,2
42.69338846206665,2.08375,3.44625,1.56275,2
42.73176050186157,2.12375,3.28575,1.76325,2
42.770336389541626,2.40425,3.84675,2.04375,2
42.80866909027099,2.4845,4.00725,2.08375,2
42.84714865684509,2.4845,3.76675,2.08375,2
42.88558053970337,2.32425,3.6865,1.9235,2
42.92400121688843,2.204,3.48625,1.80325,2
42.96250653266907,2.244,3.967,1.80325,2
43.00102615356445,2.08375,3.84675,2.0035,2
43.03948426246643,2.08375,3.52625,1.84325,2
43.07807421684265,2.12375,3.52625,1.76325,2
43.11665725708008,2.04375,3.6865,1.84325,2
43.15548086166382,2.2840000000000003,3.84675,1.88325,2
43.19424390792847,2.204,3.76675,1.84325,2
43.23290538787842,2.12375,3.44625,1.84325,2
43.27152156829834,2.32425,3.56625,1.76325,2
43.31025457382202,2.244,3.6865,1.683,2
43.34885001182556,2.04375,4.00725,1.683,2
43.387412548065186,2.0035,4.00725,1.723,2
43.42613673210144,2.04375,3.76675,1.683,2
43.464786529541016,2.244,3.76675,1.84325,2
43.50342345237732,2.36425,3.84675,1.84325,2
43.54211664199829,2.60475,4.56825,2.0035,2
43.58093476295471,2.4845,4.40775,1.84325,2
43.61962342262268,2.4442500000000003,4.84875,1.84325,2
43.66106653213501,2.4442500000000003,4.1675,1.9235,2
43.70015358924866,2.2840000000000003,3.927,2.0035,2
43.73894023895264,2.4845,4.00725,2.0035,2
43.7778263092041,2.5645,4.448,2.0035,2
43.81661558151245,2.204,4.08725,1.76325,2
43.855467081069946,2.60475,4.00725,1.9235,2
43.89441967010498,2.64475,3.927,2.0035,2
43.93331551551819,2.4442500000000003,3.6065,2.0035,2
43.972248554229736,2.16375,3.927,1.84325,2
44.01121497154236,2.40425,4.12725,1.9235,2
44.0502347946167,1.84325,3.6865,1.76325,2
44.08912658691406,1.9235,3.20575,1.9635,2
44.12806797027588,2.12375,2.805,1.84325,2
44.16709017753601,2.0035,3.16575,1.76325,2
44.20611524581909,2.2840000000000003,4.00725,1.88325,2
44.245450019836426,2.244,3.887,1.9635,2
44.28449368476868,2.12375,3.52625,1.84325,2
44.32353353500366,1.80325,3.0455,1.76325,2
44.36272215843201,1.76325,2.96525,1.60275,2
44.40183997154236,1.9235,3.16575,1.76325,2
44.44081783294678,2.32425,3.28575,2.0035,2
44.4798698425293,2.40425,3.24575,1.76325,2
44.51889181137085,2.16375,3.44625,1.84325,2
44.5580689907074,2.204,3.1255,1.84325,2
44.59798431396485,2.04375,2.88525,1.683,2
44.63709616661072,2.0035,3.28575,1.76325,2
44.67628216743469,2.08375,3.366,1.723,2
44.715518951416016,2.04375,3.28575,1.76325,2
44.75470519065857,2.08375,2.72475,1.84325,2
44.79441857337952,1.88325,3.366,1.76325,2
44.83464980125427,2.08375,3.20575,1.683,2
44.87401366233826,2.12375,3.48625,1.76325,2
44.91332030296326,2.08375,3.24575,1.60275,2
44.95254397392273,2.0035,3.6865,1.683,2
44.99181604385376,2.0035,3.20575,1.683,2
45.03121328353882,2.12375,4.00725,1.683,0
45.07065534591675,2.68475,3.84675,2.0035,0
45.11011481285095,2.4442500000000003,3.44625,1.84325,0
45.14956736564636,2.244,3.52625,1.723,0
45.18905758857727,2.04375,3.6065,1.683,0
45.22856879234314,2.204,3.44625,1.723,0
45.26804232597351,2.0035,3.20575,1.60275,0
45.307432889938354,2.16375,3.1255,1.60275,0
45.347163677215576,2.32425,2.805,1.683,0
45.38661599159241,2.08375,2.32425,1.60275,0
45.42619872093201,2.08375,2.16375,1.60275,0
45.465874433517456,1.9235,2.08375,1.60275,0
45.50539541244507,1.88325,2.0035,1.60275,0
45.544936418533325,1.84325,2.04375,1.56275,0
45.58454728126526,1.76325,1.76325,1.56275,0
45.62414479255676,1.723,1.683,1.56275,0
45.66383767127991,1.76325,1.60275,1.52275,0
45.70339250564575,1.723,1.60275,1.52275,0
45.742982149124146,1.683,1.60275,1.4425,0
45.78271126747131,1.643,1.52275,1.4425,0
45.82247447967529,1.683,1.60275,1.4425,0
45.86227059364319,1.683,1.683,1.52275,0
45.9024498462677,1.52275,1.52275,1.4425,0
45.942094802856445,1.52275,1.52275,1.3625,0
45.98169040679931,1.48275,1.4425,1.3625,0
46.021382093429565,1.4425,1.48275,1.4425,0
46.0610625743866,1.52275,1.48275,1.4425,0
46.10077619552612,1.60275,1.56275,1.4425,0
46.14048981666565,1.56275,1.52275,1.4425,0
46.18028378486633,1.643,1.48275,1.3625,0
46.21987581253052,1.56275,1.52275,1.4025,0
46.25958061218262,1.48275,1.52275,1.4025,0
46.29932427406311,1.48275,1.56275,1.4425,0
46.33909773826599,1.60275,1.52275,1.4425,0
46.37891173362732,1.60275,1.48275,1.3625,0
46.41865420341492,1.56275,1.4425,1.4025,0
46.458717584609985,1.56275,1.52275,1.4425,0
46.49850654602051,1.643,1.52275,1.4425,0
46.53826522827149,1.60275,1.52275,1.4425,0
46.578084230422974,1.60275,1.4425,1.4025,0
46.61982345581055,1.52275,1.52275,1.3625,0
46.65949606895447,1.60275,1.52275,1.3625,0
46.69933223724365,1.56275,1.4425,1.3625,0
46.739158153533936,1.56275,1.52275,1.4425,0
46.77902960777283,1.60275,1.52275,1.3625,0
46.81891369819641,1.60275,1.4425,1.3625,0
46.858704805374146,1.60275,1.4425,1.3625,0
46.89865279197693,1.52275,1.52275,1.3625,0
46.93849182128906,1.56275,1.52275,1.4425,0
46.978379249572754,1.60275,1.52275,1.4425,0
47.01898694038391,1.52275,1.4425,1.3625,0
47.05873775482178,1.643,1.4425,1.32225,0
47.09859991073608,1.643,1.4025,1.3625,0
47.138490438461304,1.643,1.4425,1.3625,0
47.1783983707428,1.643,1.4425,1.3625,0
47.21824860572815,1.56275,1.4425,1.3625,0
47.25805425643921,1.60275,1.4425,1.28225,0
47.297927379608154,1.60275,1.4025,1.28225,0
47.337878465652466,1.52275,1.4425,1.3625,0
47.37787437438965,1.56275,1.52275,1.4425,0
47.417885065078735,1.56275,1.52275,1.4425,0
47.457690954208374,1.643,1.60275,1.4425,0
47.497655630111694,1.60275,1.48275,1.4025,0
47.537633180618286,1.52275,1.52275,1.4425,0
47.57803416252136,1.56275,1.52275,1.4425,0
47.61800003051758,1.60275,1.60275,1.52275,0
47.65790152549744,1.52275,1.60275,1.48275,0
47.69795894622803,1.56275,1.56275,1.3625,0
47.737974643707275,1.56275,1.60275,1.4425,0
47.77804636955261,1.60275,1.56275,1.4425,0
47.81809210777283,1.60275,1.56275,1.52275,0
47.85815691947937,1.683,1.60275,1.48275,0
47.89833641052246,1.683,1.52275,1.4425,0
47.938382625579834,1.52275,1.52275,1.4425,0
47.9784300327301,1.60275,1.52275,1.4425,0
48.0185112953186,1.60275,1.52275,1.48275,0
48.05852270126343,1.643,1.52275,1.52275,0
48.09860825538635,1.643,1.56275,1.4425,0
48.13896465301514,1.60275,1.52275,1.4425,0
48.17901372909546,1.60275,1.52275,1.4425,0
48.21903920173645,1.60275,1.52275,1.4425,0
48.259074449539185,1.643,1.52275,1.48275,0
48.29916763305664,1.683,1.52275,1.4425,0
48.33929467201233,1.643,1.52275,1.4425,0
48.37945318222046,1.683,1.4425,1.4425,0
48.41952562332153,1.56275,1.48275,1.4425,0
48.45958876609802,1.60275,1.52275,1.4425,0
48.499794483184814,1.683,1.48275,1.4425,0
48.54004216194153,1.683,1.52275,1.4425,0
48.5802526473999,1.60275,1.52275,1.4425,0
48.62048363685608,1.52275,1.52275,1.4425,0
48.6607551574707,1.60275,1.52275,1.48275,0
48.70119071006775,1.643,1.52275,1.52275,0
48.741196155548096,1.60275,1.56275,1.48275,0
48.78142237663269,1.683,1.52275,1.4025,0
48.821534633636475,1.60275,1.52275,1.3625,0
48.86201500892639,1.643,1.52275,1.4425,0
48.902199268341064,1.60275,1.56275,1.52275,0
48.942421674728394,1.643,1.60275,1.4425,0
48.98264718055725,1.643,1.52275,1.4425,0
49.02287244796753,1.52275,1.52275,1.4425,0
49.06308364868164,1.56275,1.52275,1.4425,0
49.10320234298706,1.52275,1.52275,1.48275,0
49.143444776535034,1.60275,1.52275,1.48275,0
49.18368077278137,1.60275,1.52275,1.4425,0
49.223970890045166,1.643,1.4425,1.4425,0
49.2646107673645,1.60275,1.52275,1.3625,0
49.30489802360535,1.60275,1.52275,1.4425,0
49.34526014328003,1.643,1.52275,1.52275,0
49.385518312454224,1.60275,1.4425,1.52275,0
49.42587661743164,1.60275,1.4425,1.4425,0
49.466254472732544,1.60275,1.48275,1.4425,0
49.50652003288269,1.56275,1.52275,1.4425,0
49.54684257507324,1.60275,1.56275,1.4425,0
49.58940649032593,1.52275,1.52275,1.52275,0
49.63001489639282,1.60275,1.4425,1.4425,0
49.67041873931885,1.52275,1.4425,1.4025,0
49.71081495285034,1.60275,1.4425,1.4425,0
49.7511351108551,1.56275,1.52275,1.48275,0
49.7915575504303,1.60275,1.60275,1.52275,0
49.832932233810425,1.60275,1.56275,1.4425,0
49.873390674591064,1.56275,1.56275,1.4425,0
49.913902044296265,1.60275,1.52275,1.4425,0
49.95430421829224,1.52275,1.56275,1.4425,0
49.99481201171875,1.60275,1.60275,1.52275,0
50.035133361816406,1.56275,1.52275,1.52275,1
50.07549166679382,1.52275,1.48275,1.4425,1
50.11690926551819,1.52275,1.48275,1.3625,1
50.157435178756714,1.56275,1.52275,1.4425,1
50.198028802871704,1.60275,1.60275,1.4425,1
50.2384614944458,1.60275,1.60275,1.52275,1
50.2789409160614,1.60275,1.52275,1.4425,1
50.31936502456665,1.56275,1.4425,1.4425,1
50.35986566543579,1.683,1.52275,1.4425,1
50.400736808776855,1.723,1.56275,1.683,1
50.44127535820007,2.244,2.0035,1.9235,1
50.48185992240906,2.4845,2.40425,2.40425,1
50.522456884384155,3.326,2.64475,4.28775,1
50.56312870979309,3.6065,3.1255,4.32775,1
50.60382533073425,3.00525,2.68475,3.406,1
50.644763708114624,2.88525,2.60475,3.76675,1
50.68562054634094,2.88525,2.40425,3.406,1
50.72651720046997,2.845,2.68475,3.00525,1
50.76732659339905,2.805,2.64475,2.805,1
50.808037996292114,2.805,2.4845,2.805,1
50.8489248752594,2.64475,2.36425,2.64475,1
50.88990640640259,2.40425,2.36425,2.2840000000000003,1
50.93074083328247,2.4845,2.64475,2.64475,1
50.97189092636109,2.40425,2.32425,2.845,1
51.01281237602234,2.16375,2.40425,2.64475,1
51.05378603935242,2.12375,2.08375,2.40425,1
51.09469676017761,2.2840000000000003,2.32425,2.32425,1
51.135560035705566,2.08375,2.0035,2.16375,1
51.17644214630127,2.0035,2.12375,2.04375,1
51.21743297576904,2.0035,2.08375,1.9235,1
51.25843548774719,1.76325,1.84325,1.88325,1
51.29932188987732,2.244,2.16375,2.204,1
51.34035348892212,2.16375,2.0035,2.16375,1
51.38162851333618,2.204,1.9635,1.84325,1
51.422770977020264,1.76325,1.9635,1.643,1
51.463932514190674,1.84325,1.84325,1.60275,1
51.50511026382446,1.80325,1.76325,1.60275,1
51.54655742645264,1.9635,1.9235,2.12375,1
51.587623596191406,2.0035,1.9235,2.16375,1
51.62873649597168,2.04375,1.9235,2.204,1
51.66990923881531,2.204,1.9235,2.16375,1
51.71089220046997,2.204,2.12375,1.9635,1
51.75189256668091,1.9635,1.9235,1.84325,1
51.79305028915405,1.683,1.9235,2.04375,1
51.83433771133423,1.683,1.76325,1.88325,1
51.875555753707886,1.683,1.84325,1.643,1
51.9167845249176,1.9235,1.84325,1.52275,1
51.95814514160156,2.16375,1.9235,1.84325,1
51.99934792518616,2.0035,1.76325,1.643,1
52.04060745239258,1.9235,1.84325,1.60275,1
52.08207964897156,2.16375,2.08375,1.643,1
52.123783111572266,1.76325,1.80325,1.60275,1
52.16520929336548,2.08375,1.84325,1.52275,1
52.206486225128174,1.84325,1.76325,1.84325,1
52.24778938293457,2.0035,1.80325,2.0035,1
52.28924822807312,1.88325,1.9635,1.643,1
52.33068037033081,1.9635,1.76325,1.9235,1
52.37208700180054,1.88325,2.0035,1.84325,1
52.41361737251282,1.9235,1.88325,1.9235,1
52.455047607421875,1.84325,1.80325,1.84325,1
52.49645209312439,2.04375,1.84325,2.04375,1
52.53806686401367,1.80325,1.60275,1.76325,1
52.57947063446045,1.683,1.683,1.52275,1
52.62085700035095,1.723,1.643,1.52275,1
52.66491913795471,1.84325,1.643,1.643,1
52.707255363464355,1.683,1.683,1.52275,1
52.74882531166077,1.683,1.60275,1.52275,1
52.79042339324951,1.52275,1.76325,1.60275,1
52.831899881362915,1.52275,1.60275,1.4425,1
52.87359404563904,1.52275,1.643,1.52275,1
52.915242195129395,1.683,1.88325,1.4425,1
52.956812143325806,1.4425,1.723,1.4025,1
52.99865412712097,1.723,1.683,1.4025,1
53.04020380973816,1.683,1.76325,1.723,1
53.08204102516174,1.683,1.683,1.88325,1
53.12358498573303,1.76325,1.84325,2.0035,1
53.16530632972717,1.80325,1.76325,2.08375,1
53.20703625679016,1.9235,1.84325,2.244,1
53.248671531677246,2.0035,1.84325,2.244,1
53.29077649116516,1.88325,1.76325,2.2840000000000003,1
53.33253192901611,1.76325,1.76325,1.80325,1
53.37440133094787,1.52275,1.723,2.32425,1
53.41612720489502,1.76325,1.84325,2.244,1
53.45807981491089,1.84325,1.84325,2.204,1
53.4998517036438,1.76325,1.76325,2.36425,1
53.54188370704651,1.60275,1.9235,2.16375,1
53.58371186256409,1.683,1.723,2.16375,1
53.625624895095825,1.76325,1.76325,2.04375,1
53.66750407218933,1.80325,1.683,2.04375,1
53.709381103515625,1.84325,1.683,2.32425,1
53.75113844871521,2.0035,1.643,1.84325,1
53.79297351837158,1.88325,1.643,1.84325,1
53.83484697341919,1.84325,1.683,2.08375,1
53.87713122367859,1.9235,1.76325,2.16375,1
53.919349908828735,1.76325,1.683,1.9235,1
53.96136236190796,2.04375,1.76325,2.0035,1
54.0032012462616,1.9635,1.76325,1.84325,1
54.0451283454895,1.84325,1.683,1.683,1
54.08691096305847,1.84325,1.56275,1.84325,1
54.128759145736694,1.84325,1.60275,1.723,1
54.17072558403015,1.76325,1.52275,1.76325,1
54.21272015571594,1.76325,1.60275,1.52275,1
54.254725217819214,1.56275,1.52275,1.52275,1
54.29672145843506,1.683,1.52275,1.643,1
54.338714838027954,1.643,1.683,1.48275,1
54.38071250915527,1.56275,1.60275,1.52275,1
54.422805309295654,1.683,1.56275,1.643,1
54.4652259349823,1.80325,1.60275,1.60275,1
54.50711727142334,1.60275,1.52275,1.76325,1
54.549184799194336,1.76325,1.683,1.683,1
54.59155225753784,1.60275,1.60275,1.4025,1
54.633854389190674,1.84325,1.683,1.60275,1
54.67629528045654,1.60275,1.52275,1.52275,1
54.71859788894653,1.60275,1.52275,1.60275,1
54.76070022583008,1.683,1.4425,1.643,1
54.80278754234314,1.52275,1.52275,1.80325,1
54.84501338005066,1.56275,1.52275,1.60275,1
54.88724613189697,1.52275,1.52275,1.52275,1
54.92954063415527,1.4425,1.52275,1.32225,1
54.971816301345825,1.60275,1.52275,1.9235,1
55.01436233520508,1.60275,1.56275,1.643,2
55.05693578720093,1.60275,1.52275,1.84325,2
55.099318742752075,1.683,1.4425,1.52275,2
55.14176607131958,1.683,1.52275,1.76325,2
55.18395161628723,1.9235,1.52275,1.683,2
55.22643542289734,1.9235,1.52275,1.76325,2
55.26863646507263,1.683,1.4425,1.52275,2
55.310919761657715,1.60275,1.48275,1.52275,2
55.35314583778381,1.52275,1.4425,1.4025,2
55.395546436309814,1.52275,1.60275,1.28225,2
55.438063859939575,1.723,1.9635,1.28225,2
55.48061013221741,1.76325,2.244,1.28225,2
55.52311873435974,1.52275,2.32425,1.20225,2
55.565528869628906,1.56275,2.68475,1.24225,2
55.60881042480469,1.60275,3.52625,1.4425,2
55.654404640197754,1.76325,3.80675,1.56275,2
55.69673776626587,2.204,4.64825,1.9635,2
55.739163875579834,2.12375,5.16925,1.9235,2
55.78179383277893,2.64475,5.52975,2.0035,2
55.82445693016052,2.5245,5.69,2.04375,2
55.86734485626221,2.765,5.77025,2.244,2
55.91011643409729,2.4442500000000003,4.96875,2.0035,2
55.95255827903747,2.5245,5.52975,2.204,2
55.99538969993591,3.0455,6.09075,2.5245,2
56.038146018981934,2.68475,4.56825,2.204,2
56.08096933364868,2.5645,4.56825,1.9635,2
56.12371253967285,2.40425,4.08725,1.88325,2
56.1666362285614,2.32425,3.927,1.88325,2
56.209389448165894,2.12375,3.6865,1.9235,2
56.252269983291626,2.2840000000000003,3.76675,1.9235,2
56.29512310028076,2.64475,4.08725,2.12375,2
56.34021234512329,2.204,3.84675,1.9235,2
56.38321113586426,2.40425,4.08725,1.76325,2
56.42644572257995,2.5645,3.927,1.88325,2
56.46912932395935,2.5645,4.12725,1.76325,2
56.51190209388733,2.32425,3.80675,1.76325,2
56.554885149002075,2.5245,4.40775,2.08375,2
56.59803318977356,2.16375,4.2475000000000005,1.76325,2
56.64105939865112,2.244,3.927,1.76325,2
56.68397116661072,2.4845,3.927,1.84325,2
56.7269983291626,2.244,4.04725,1.84325,2
56.77003788948059,2.04375,3.6865,1.76325,2
56.81315779685974,2.32425,3.76675,2.0035,2
56.8564567565918,2.32425,4.2475000000000005,1.9235,2
56.89959907531738,2.16375,4.7285,1.683,2
56.9428596496582,2.2840000000000003,4.00725,1.76325,2
56.985920906066895,2.32425,4.00725,1.80325,2
57.02897310256958,2.32425,3.887,1.76325,2
57.07206392288208,2.2840000000000003,3.6865,1.76325,2
57.11529207229614,2.0035,3.44625,1.60275,2
57.158613204956055,1.9235,3.927,1.60275,2
57.20169281959534,2.0035,3.1255,1.60275,2
57.24474477767944,1.9635,3.6065,1.76325,2
57.28778696060181,1.76325,3.52625,1.52275,2
57.33116579055786,1.9235,3.28575,1.60275,2
57.3745493888855,2.244,3.44625,1.683,2
57.41779112815857,2.16375,3.366,1.80325,2
57.46124053001404,2.12375,3.16575,1.76325,2
57.50439167022705,1.9235,3.28575,1.683,2
57.54775261878967,1.76325,3.6865,1.60275,2
57.591214418411255,1.683,3.6465,1.683,2
57.63768768310547,2.204,3.56625,1.76325,2
57.681119203567505,2.08375,3.76675,1.76325,2
57.724406003952026,2.0035,4.2075000000000005,1.9235,2
57.76784300804138,2.244,4.2475000000000005,1.76325,2
57.811179876327515,2.0035,4.2475000000000005,1.683,2
57.8546359539032,2.204,4.2075000000000005,1.723,2
57.89821171760559,2.32425,3.6865,1.683,2
57.9415431022644,2.08375,3.52625,1.76325,2
57.984901666641235,2.32425,3.84675,1.84325,2
58.04006886482239,2.08375,4.00725,1.84325,2
58.100318908691406,1.9235,3.84675,1.683,2
58.14361786842346,2.16375,3.84675,1.9235,2
58.18681955337525,2.12375,3.84675,1.723,2
58.23030924797058,2.0035,3.52625,1.60275,2
58.273603677749634,2.08375,3.44625,1.76325,2
58.31708359718323,2.204,3.0855,1.723,2
58.36057710647583,2.04375,3.0455,1.84325,2
58.403908252716064,2.204,3.0455,1.76325,2
58.44745683670044,2.0035,3.28575,1.683,2
58.49100995063782,2.12375,3.44625,1.9235,2
58.53465914726257,2.16375,3.28575,1.88325,2
58.57865381240845,2.244,2.88525,1.84325,2
58.62464427947998,2.08375,3.0455,2.0035,2
58.668211460113525,2.12375,3.44625,1.76325,2
58.7120726108551,2.204,3.0455,1.683,2
58.755699634552,2.16375,3.44625,1.80325,2
58.79939270019531,2.08375,2.96525,1.723,2
58.84305477142334,2.04375,3.44625,1.76325,2
58.88671135902405,2.16375,3.52625,1.76325,2
58.93034815788269,2.08375,3.76675,1.80325,2
58.97391629219055,1.88325,3.28575,1.76325,2
59.017496824264526,2.08375,3.52625,1.723,2
59.061007261276245,1.9635,3.20575,1.723,2
59.104467153549194,2.0035,3.366,1.84325,2
59.14819002151489,1.9635,3.1255,1.723,2
59.19194030761719,2.04375,3.6065,1.76325,2
59.23557806015015,2.244,3.20575,1.76325,2
59.279338121414185,2.08375,2.96525,1.76325,2
59.32352304458618,1.9235,3.20575,1.683,2
59.36742925643921,1.9235,3.72675,1.683,2
59.41125774383545,2.08375,3.6065,1.9235,2
59.455002307891846,1.88325,2.765,1.76325,2
59.499160051345825,1.76325,3.44625,1.76325,2
59.54323434829712,2.12375,3.6865,1.88325,2
59.58730244636536,2.32425,4.2075000000000005,1.84325,2
59.632065773010254,2.0035,3.967,1.723,2
59.67619705200195,2.16375,3.927,1.76325,2
59.72001886367798,2.244,3.72675,1.76325,2
59.76403188705444,2.32425,3.927,1.84325,2
59.80797624588013,2.4845,4.2475000000000005,1.9235,2
59.85192322731018,2.64475,3.6865,1.9235,2
59.89591193199158,2.32425,4.448,2.0035,2
59.94048738479614,2.2840000000000003,5.12925,2.0035,2
59.98456931114197,2.64475,4.1675,1.9235,2
60.028518199920654,2.244,3.52625,1.80325,0
60.07255458831787,2.16375,3.20575,1.80325,0
60.11692953109741,1.9235,2.2840000000000003,1.643,0
60.16092157363891,1.84325,2.72475,1.60275,0
60.20501494407654,2.04375,2.68475,1.683,0
60.24914813041687,1.84325,2.04375,1.4425,0
60.29326868057251,1.76325,2.16375,1.4425,0
60.337193727493286,1.723,1.76325,1.4425,0
60.38136863708496,1.643,1.643,1.48275,0
60.42556858062744,1.84325,1.683,1.56275,0
60.46967315673828,1.76325,1.52275,1.4425,0
60.51399636268616,1.683,1.52275,1.4425,0
60.55877375602722,1.60275,1.56275,1.4425,0
60.60317850112915,1.60275,1.52275,1.3625,0
60.64755177497864,1.643,1.52275,1.4025,0
60.69189977645874,1.683,1.4425,1.4025,0
60.73607277870178,1.683,1.52275,1.4425,0
60.780354022979736,1.683,1.52275,1.4425,0
60.82478356361389,1.60275,1.52275,1.4425,0
60.86891007423401,1.60275,1.48275,1.3625,0
60.913142681121826,1.643,1.4425,1.3625,0
60.957464933395386,1.60275,1.4425,1.4025,0
61.00194978713989,1.643,1.52275,1.4025,0
61.04625916481018,1.683,1.52275,1.4025,0
61.09076380729675,1.60275,1.4425,1.3625,0
61.135287046432495,1.76325,1.3625,1.32225,0
61.179935932159424,1.683,1.4425,1.4425,0
61.22428894042969,1.60275,1.52275,1.4425,0
61.2686755657196,1.683,1.48275,1.4425,0
61.31287455558777,1.683,1.48275,1.4025,0
61.35712766647339,1.60275,1.4425,1.3625,0
61.40151858329773,1.683,1.48275,1.4425,0
61.44583797454834,1.683,1.52275,1.4425,0
61.4902663230896,1.60275,1.52275,1.4425,0
61.53475880622864,1.683,1.60275,1.3625,0
61.57924032211304,1.683,1.4425,1.32225,0
61.62389588356018,1.60275,1.52275,1.3625,0
61.67068791389465,1.683,1.52275,1.4425,0
61.71681070327759,1.683,1.52275,1.4025,0
61.761202573776245,1.683,1.48275,1.3625,0
61.8068630695343,1.643,1.52275,1.3625,0
61.85141134262085,1.683,1.52275,1.4025,0
61.89588403701782,1.683,1.52275,1.4425,0
61.94034576416016,1.60275,1.52275,1.4425,0
61.98495173454285,1.683,1.52275,1.3625,0
62.02940630912781,1.683,1.4425,1.3625,0
62.07409954071045,1.643,1.52275,1.4425,0
62.118608474731445,1.76325,1.52275,1.4425,0
62.16329765319824,1.683,1.52275,1.4425,0
62.20785164833069,1.60275,1.52275,1.3625,0
62.25237464904785,1.683,1.4425,1.32225,0
62.2970175743103,1.683,1.48275,1.4425,0
62.34159588813782,1.60275,1.52275,1.4425,0
62.386242628097534,1.683,1.48275,1.3625,0
62.43093943595886,1.683,1.4425,1.3625,0
62.475497245788574,1.683,1.4425,1.3625,0
62.5199134349823,1.683,1.4425,1.3625,0
62.5644965171814,1.643,1.52275,1.4425,0
62.609253883361816,1.60275,1.52275,1.4425,0
62.65358304977417,1.683,1.4425,1.3625,0
62.69861912727356,1.60275,1.4425,1.3625,0
62.743396043777466,1.60275,1.48275,1.3625,0
62.790236473083496,1.643,1.4425,1.4425,0
62.835047245025635,1.683,1.52275,1.3625,0
62.87980747222901,1.76325,1.4425,1.3625,0
62.92468595504761,1.643,1.4425,1.3625,0
62.96927309036255,1.683,1.52275,1.3625,0
63.01398277282715,1.683,1.52275,1.4425,0
63.05871629714966,1.60275,1.4425,1.4025,0
63.107609033584595,1.60275,1.4425,1.3625,0
63.18240809440613,1.683,1.52275,1.3625,0
63.233683347702026,1.643,1.52275,1.4425,0
63.27899503707886,1.683,1.4425,1.4425,0
63.32407236099243,1.60275,1.4425,1.3625,0
63.36906290054321,1.683,1.4425,1.3625,0
63.41407513618469,1.683,1.4425,1.4025,0
63.4591064453125,1.60275,1.52275,1.4425,0
63.504157066345215,1.683,1.48275,1.4425,0
63.54940414428711,1.683,1.4425,1.3625,0
63.59456515312195,1.683,1.4425,1.3625,0
63.63981080055237,1.643,1.48275,1.3625,0
63.685054302215576,1.683,1.52275,1.4425,0
63.73028540611267,1.683,1.52275,1.4425,0
63.77548813819885,1.60275,1.4425,1.3625,0
63.82144474983215,1.723,1.4425,1.3625,0
63.86660170555115,1.723,1.52275,1.4425,0
63.91177082061768,1.683,1.52275,1.52275,0
63.95688509941101,1.683,1.52275,1.4025,0
64.00203704833984,1.76325,1.4425,1.28225,0
64.04726266860962,1.643,1.4425,1.3625,0
64.09246921539307,1.60275,1.52275,1.4425,0
64.13742232322693,1.683,1.4425,1.3625,0
64.18256688117981,1.683,1.52275,1.3625,0
64.22784876823425,1.683,1.4425,1.3625,0
64.27303266525269,1.683,1.4425,1.3625,0
64.31833219528198,1.76325,1.52275,1.3625,0
64.36354470252991,1.683,1.52275,1.4425,0
64.4087586402893,1.60275,1.4425,1.4025,0
64.45498156547546,1.683,1.4425,1.3625,0
64.50028371810913,1.723,1.4425,1.3625,0
64.54543018341064,1.683,1.52275,1.4425,0
64.5906252861023,1.643,1.52275,1.4425,0
64.63661217689514,1.723,1.4425,1.4425,0
64.68433380126953,1.683,1.4425,1.3625,0
64.72963500022888,1.683,1.52275,1.3625,0
64.77510476112366,1.643,1.52275,1.4425,0
64.82033228874207,1.723,1.52275,1.4425,0
64.86585712432861,1.643,1.52275,1.3625,0
64.91117358207703,1.60275,1.4425,1.3625,0
64.95652270317078,1.643,1.52275,1.3625,0
65.00195574760437,1.683,1.52275,1.4425,1
65.04729890823364,1.683,1.4425,1.4425,1
65.09276390075684,1.60275,1.4425,1.3625,1
65.13807010650635,1.683,1.4425,1.3625,1
65.183598279953,1.643,1.60275,1.3625,1
65.22901129722595,1.76325,1.84325,1.56275,1
65.27452278137207,1.76325,2.12375,1.80325,1
65.31988334655762,2.40425,3.20575,2.36425,1
65.36544704437256,2.36425,2.805,2.5645,1
65.41110587120056,2.4845,3.1255,2.244,1
65.45666861534119,2.64475,2.96525,2.40425,1
65.50225591659546,2.64475,3.1255,2.5645,1
65.54785656929016,2.40425,2.36425,2.2840000000000003,1
65.59355664253235,2.64475,2.5645,2.4845,1
65.63921070098877,2.244,2.4845,2.4845,1
65.68498921394348,2.244,2.64475,2.60475,1
65.73057079315186,2.0035,2.68475,2.845,1
65.77741813659668,2.12375,2.765,3.366,1
65.82299494743347,2.72475,2.845,3.44625,1
65.86885118484497,3.44625,2.88525,3.6065,1
65.91464376449585,3.24575,2.92525,3.0455,1
65.96055150032043,3.1255,2.72475,4.1675,1
66.00639963150024,3.20575,3.00525,3.84675,1
66.05238342285156,3.28575,2.96525,3.16575,1
66.09848999977112,2.88525,2.5645,2.72475,1
66.14444661140442,2.72475,2.92525,2.805,1
66.1903829574585,2.68475,2.72475,2.32425,1
66.23626685142517,2.805,2.5645,2.04375,1
66.28235983848572,2.5645,2.5245,2.36425,1
66.32837867736816,2.5645,2.4845,2.2840000000000003,1
66.37439036369324,2.32425,2.4845,2.36425,1
66.4202470779419,2.805,2.4442500000000003,2.5645,1
66.46629118919373,2.2840000000000003,2.40425,2.72475,1
66.5122709274292,2.40425,2.2840000000000003,2.36425,1
66.55838441848755,1.9235,2.36425,2.40425,1
66.60437750816345,2.0035,2.08375,2.08375,1
66.65016841888428,1.9235,2.12375,2.244,1
66.69627475738525,2.16375,2.12375,1.9235,1
66.74251437187195,1.9235,2.08375,1.80325,1
66.78850412368774,2.16375,2.16375,1.76325,1
66.83476519584656,1.84325,1.9635,1.76325,1
66.8810076713562,1.56275,2.0035,1.723,1
66.92735528945923,1.4425,2.0035,2.204,1
66.97350549697876,1.683,2.08375,2.2840000000000003,1
67.0195963382721,1.683,2.0035,1.80325,1
67.06590390205383,1.84325,1.9635,2.0035,1
67.11327981948853,2.04375,2.16375,2.0035,1
67.1593849658966,1.9635,2.0035,2.08375,1
67.2055721282959,2.04375,2.244,2.08375,1
67.25193309783936,1.723,2.0035,2.04375,1
67.29823088645935,1.60275,2.244,1.683,1
67.3445451259613,1.76325,2.0035,1.643,1
67.39100432395935,1.76325,2.0035,1.643,1
67.4372911453247,1.84325,1.84325,2.08375,1
67.48364186286926,1.683,1.683,1.723,1
67.5300235748291,1.683,1.60275,1.76325,1
67.57651543617249,1.84325,1.9235,1.84325,1
67.62606120109558,1.683,1.723,1.76325,1
67.67382383346558,1.9235,1.80325,1.683,1
67.72143483161926,1.9635,1.683,1.76325,1
67.76937937736511,2.08375,1.60275,1.60275,1
67.81860494613647,1.84325,1.60275,1.76325,1
67.86654853820801,1.76325,1.76325,1.52275,1
67.91436433792114,2.16375,1.76325,1.683,1
67.96232080459595,1.84325,1.76325,1.60275,1
68.01015591621399,1.84325,1.88325,2.0035,1
68.05819010734558,1.723,1.9235,1.9635,1
68.10609912872314,1.76325,1.76325,2.0035,1
68.154048204422,1.9235,1.84325,1.9235,1
68.20205736160278,1.9235,1.76325,1.84325,1
68.25015664100647,1.84325,1.76325,1.88325,1
68.2981629371643,1.9235,1.88325,1.88325,1
68.34603714942932,2.04375,2.08375,1.76325,1
68.39288401603699,1.9235,1.88325,1.84325,1
68.4395751953125,1.84325,1.9235,1.643,1
68.48729968070984,1.723,1.80325,1.56275,1
68.53420996665955,1.80325,1.76325,1.80325,1
68.58098840713501,1.88325,1.9635,1.643,1
68.62803196907043,1.683,1.84325,1.60275,1
68.67478013038635,1.56275,1.9235,1.60275,1
68.7214457988739,1.76325,1.84325,1.52275,1
68.76824188232422,1.9235,1.84325,1.9635,1
68.8149995803833,1.9635,1.76325,1.80325,1
68.86183977127075,1.9635,1.643,1.80325,1
68.9087405204773,2.0035,2.0035,2.04375,1
68.95553159713745,1.9635,2.0035,1.84325,1
69.00249528884888,2.40425,2.2840000000000003,1.643,1
69.04940462112427,1.9235,1.9235,1.60275,1
69.09624695777893,1.80325,1.76325,1.52275,1
69.14316987991333,1.88325,2.0035,1.76325,1
69.19003796577454,1.88325,2.0035,1.80325,1
69.23692631721497,1.76325,2.16375,1.84325,1
69.2839560508728,1.76325,1.9235,1.643,1
69.33081555366516,1.9635,2.16375,1.52275,1
69.37790155410767,1.88325,1.88325,1.4425,1
69.42487692832947,2.0035,2.04375,1.683,1
69.47178101539612,1.9235,2.08375,1.60275,1
69.52078199386597,2.40425,2.16375,1.9235,1
69.5680205821991,2.0035,2.40425,1.723,1
69.6159656047821,1.84325,2.08375,1.88325,1
69.66321778297424,2.0035,2.16375,1.9235,1
69.71047616004944,2.0035,2.12375,1.80325,1
69.75768733024597,1.88325,1.9235,1.76325,1
69.80485844612122,1.9235,1.9235,1.76325,1
69.85314512252808,2.08375,1.9235,1.9235,1
69.9003267288208,1.9635,1.84325,2.0035,1
69.94749784469604,1.88325,2.08375,1.683,1
69.99482822418213,2.0035,1.9235,1.9235,1
70.04238533973694,1.88325,1.9635,1.76325,2
70.08952260017395,1.76325,1.683,1.60275,2
70.13683271408081,1.723,2.08375,1.643,2
70.18418598175049,1.76325,1.84325,1.4425,2
70.23153686523438,1.56275,1.9635,1.52275,2
70.27892255783081,1.48275,1.9635,1.4425,2
70.32641839981079,1.52275,1.76325,1.4425,2
70.37364315986633,1.683,1.60275,1.3625,2
70.42083311080933,1.683,1.52275,1.20225,2
70.4681658744812,1.60275,1.9235,1.20225,2
70.5155029296875,1.60275,2.2840000000000003,1.20225,2
70.5627429485321,1.52275,3.0455,1.20225,2
70.61023664474487,1.60275,3.76675,1.3625,2
70.65768051147461,1.683,4.00725,1.3625,2
70.70746231079102,2.12375,3.887,1.60275,2
70.7547812461853,2.4845,5.16925,2.0035,2
70.80240941047668,2.805,6.131,2.2840000000000003,2
70.85021138191223,2.4442500000000003,5.77025,2.04375,2
70.89792561531067,2.845,4.7285,2.08375,2
70.94549655914307,2.88525,5.77025,2.16375,2
70.99323582649231,2.64475,5.20925,1.9235,2
71.04088973999023,2.4845,4.2475000000000005,1.9635,2
71.08848261833191,2.16375,4.448,1.84325,2
71.13607025146484,2.4845,4.8085,2.0035,2
71.18388628959656,2.2840000000000003,3.887,1.84325,2
71.23299312591553,2.32425,3.6865,1.80325,2
71.28065037727356,2.2840000000000003,3.84675,1.9235,2
71.32855439186096,2.845,4.2075000000000005,2.04375,2
71.37649965286255,2.60475,4.1675,2.04375,2
71.42447972297668,2.4442500000000003,3.887,1.9235,2
71.47224187850952,2.4442500000000003,3.76675,1.9235,2
71.52003455162048,2.4442500000000003,3.366,1.80325,2
71.56800723075867,2.32425,3.80675,1.84325,2
71.61592435836792,2.244,3.52625,1.76325,2
71.66386079788208,2.0035,3.28575,1.84325,2
71.71202039718628,2.16375,3.52625,1.683,2
71.75997805595398,1.9635,3.6865,1.683,2
71.80793809890747,2.0035,3.366,1.683,2
71.85576438903809,2.08375,3.1255,1.60275,2
71.90394520759583,1.76325,3.20575,1.52275,2
71.95207285881042,1.9235,3.56625,1.60275,2
72.00020575523376,1.9235,3.52625,1.52275,2
72.04831957817078,2.16375,3.406,1.60275,2
72.09648108482361,2.12375,3.20575,1.76325,2
72.14468932151794,2.16375,3.52625,1.88325,2
72.19295191764832,2.04375,3.366,1.84325,2
72.24104404449463,2.08375,3.52625,1.9235,2
72.28921437263489,1.84325,3.0855,1.84325,2
72.33719205856323,1.9235,3.6465,1.9235,2
72.38538718223572,2.0035,3.6065,2.04375,2
72.4336929321289,2.16375,4.12725,2.04375,2
72.48204755783081,2.08375,4.00725,1.9235,2
72.53030920028687,2.32425,3.84675,2.16375,2
72.57873010635376,2.5645,4.2475000000000005,2.40425,2
72.62838411331177,2.4442500000000003,4.08725,2.04375,2
72.6768627166748,2.08375,4.00725,1.80325,2
72.72524666786194,2.244,3.6065,1.76325,2
72.77342796325684,2.204,3.84675,2.08375,2
72.82177662849426,2.08375,4.08725,2.08375,2
72.87018060684204,2.12375,3.927,1.84325,2
72.91874098777771,2.32425,4.2075000000000005,2.08375,2
72.96731734275818,2.32425,3.72675,1.9235,2
73.01580858230591,2.5645,3.6865,2.08375,2
73.06432342529297,2.4442500000000003,3.6065,2.16375,2
73.1128454208374,2.16375,3.44625,2.0035,2
73.16135692596436,2.08375,3.44625,1.9235,2
73.21018147468567,2.2840000000000003,3.927,2.0035,2
73.2588062286377,2.244,3.0855,2.12375,2
73.30736947059631,2.16375,3.24575,2.08375,2
73.35584259033203,2.16375,3.20575,2.0035,2
73.40439033508301,2.12375,3.366,1.9635,2
73.45327520370483,1.84325,3.16575,1.9635,2
73.50323009490967,1.84325,3.24575,1.9235,2
73.55335330963135,1.76325,3.20575,1.80325,2
73.60334610939026,1.84325,3.52625,1.84325,2
73.65350675582886,1.9235,3.6465,1.9235,2
73.70373320579529,2.08375,3.6865,2.08375,2
73.75392246246338,1.76325,3.44625,1.9235,2
73.80394577980042,2.0035,3.44625,1.9235,2
73.85276651382446,2.08375,3.0855,1.9235,2
73.90157079696655,1.9235,2.805,1.9235,2
73.95056056976318,1.88325,2.92525,1.76325,2
73.99953818321228,1.76325,2.805,1.80325,2
74.04951357841492,1.9235,3.1255,2.0035,2
74.0983898639679,1.84325,3.1255,2.0035,2
74.14725422859192,2.08375,3.20575,2.0035,2
74.19604825973511,1.9235,2.64475,1.76325,2
74.24510216712952,1.88325,2.60475,1.84325,2
74.29446339607239,1.9235,3.1255,1.9235,2
74.3434784412384,1.76325,3.72675,1.9235,2
74.39247941970825,1.9235,3.6065,1.9235,2
74.44134736061096,2.0035,3.24575,1.84325,2
74.4902811050415,1.9235,3.326,1.84325,2
74.5391321182251,1.84325,2.88525,1.80325,2
74.58797645568848,2.12375,3.20575,2.04375,2
74.63701462745667,1.84325,3.28575,1.84325,2
74.686199426651,1.683,3.28575,1.76325,2
74.73531556129456,2.08375,3.00525,1.84325,2
74.78442072868347,1.80325,3.52625,1.723,2
74.83354234695435,1.88325,3.24575,1.76325,2
74.88277077674866,2.0035,3.52625,1.683,2
74.93198680877686,1.76325,3.20575,1.60275,2
74.9813220500946,1.84325,3.28575,1.76325,2
75.03041553497314,1.84325,3.0455,1.9235,0
75.07970237731934,1.76325,3.0455,1.76325,0
75.1289587020874,1.60275,2.16375,1.643,0
75.17831683158875,1.643,2.0035,1.723,0
75.2276439666748,1.643,1.9235,1.76325,0
75.2768828868866,1.60275,1.84325,1.683,0
75.32635593414307,1.56275,1.76325,1.60275,0
75.37557792663574,1.60275,1.76325,1.60275,0
75.42485451698303,1.643,1.88325,1.723,0
75.47532486915588,1.643,1.84325,1.683,0
75.52470064163208,1.56275,1.683,1.60275,0
75.57398200035095,1.643,1.683,1.52275,0
75.62307667732239,1.60275,1.76325,1.56275,0
75.67230701446533,1.643,1.76325,1.643,0
75.72153663635254,1.683,1.723,1.683,0
75.77075147628784,1.60275,1.683,1.52275,0
75.8200454711914,1.60275,1.80325,1.52275,0
75.86933398246765,1.56275,1.76325,1.60275,0
75.918705701828,1.60275,1.76325,1.60275,0
75.96811962127686,1.60275,1.76325,1.60275,0
76.0174913406372,1.52275,1.80325,1.60275,0
76.06673169136047,1.60275,1.683,1.643,0
76.11635565757751,1.643,1.683,1.683,0
76.16590571403503,1.643,1.723,1.643,0
76.21552300453186,1.60275,1.683,1.643,0
76.26488089561462,1.60275,1.683,1.683,0
76.31438708305359,1.60275,1.76325,1.683,0
76.36405801773071,1.60275,1.76325,1.683,0
76.41354870796204,1.643,1.76325,1.683,0
76.46310067176819,1.683,1.723,1.683,0
76.51262855529785,1.643,1.76325,1.683,0
76.56222009658813,1.643,1.76325,1.76325,0
76.61189460754395,1.643,1.76325,1.76325,0
76.66153407096863,1.60275,1.683,1.683,0
76.71117329597473,1.643,1.683,1.683,0
76.7607421875,1.60275,1.683,1.683,0
76.81022787094116,1.60275,1.76325,1.76325,0
76.8597559928894,1.60275,1.84325,1.683,0
76.91149950027466,1.643,1.76325,1.683,0
76.96105074882507,1.643,1.76325,1.683,0
77.01165199279785,1.723,1.723,1.683,0
77.06122255325317,1.683,1.76325,1.76325,0
77.11064052581787,1.60275,1.76325,1.683,0
77.1602623462677,1.683,1.76325,1.60275,0
77.20988297462463,1.683,1.76325,1.683,0
77.25929927825928,1.683,1.80325,1.723,0
77.30892491340637,1.723,1.76325,1.723,0
77.3585638999939,1.683,1.683,1.683,0
77.40835952758789,1.643,1.683,1.683,0
77.45794463157654,1.643,1.683,1.723,0
77.5073971748352,1.683,1.723,1.683,0
77.55694484710693,1.723,1.76325,1.683,0
77.60654759407043,1.76325,1.76325,1.683,0
77.65731477737427,1.683,1.683,1.683,0
77.70668125152588,1.683,1.723,1.683,0
77.75626015663147,1.683,1.723,1.683,0
77.80587077140808,1.683,1.723,1.643,0
77.85543704032898,1.723,1.683,1.683,0
77.90510487556458,1.683,1.76325,1.76325,0
77.95456504821777,1.723,1.76325,1.76325,0
78.00428819656372,1.76325,1.723,1.683,0
78.05403065681458,1.683,1.723,1.60275,0
78.10368490219116,1.683,1.76325,1.683,0
78.15341567993164,1.76325,1.76325,1.683,0
78.20297074317932,1.683,1.723,1.683,0
78.25258207321167,1.683,1.723,1.683,0
78.3024308681488,1.683,1.76325,1.683,0
78.3532361984253,1.76325,1.76325,1.723,0
78.40305233001709,1.76325,1.80325,1.723,0
78.45280361175537,1.683,1.76325,1.643,0
78.50264406204224,1.683,1.76325,1.60275,0
78.55261516571045,1.723,1.723,1.683,0
78.60259985923767,1.723,1.76325,1.723,0
78.65259790420532,1.76325,1.683,1.683,0
78.70254921913147,1.723,1.683,1.60275,0
78.75251293182373,1.683,1.723,1.683,0
78.8024320602417,1.683,1.80325,1.683,0
78.85262322425842,1.723,1.76325,1.723,0
78.90254211425781,1.723,1.76325,1.683,0
78.95256853103638,1.76325,1.723,1.683,0
79.00262188911438,1.76325,1.76325,1.683,0
79.05407118797302,1.76325,1.76325,1.723,0
79.10404920578003,1.76325,1.76325,1.683,0
79.15407490730286,1.683,1.723,1.60275,0
79.20391750335693,1.683,1.683,1.60275,0
79.2537739276886,1.76325,1.76325,1.723,0
79.30383372306824,1.76325,1.76325,1.723,0
79.3539445400238,1.683,1.683,1.683,0
79.40398859977722,1.683,1.683,1.643,0
79.45401310920715,1.683,1.683,1.683,0
79.50397777557373,1.76325,1.76325,1.723,0
79.55401110649109,1.683,1.723,1.683,0
79.60404324531555,1.76325,1.683,1.683,0
79.65424108505249,1.76325,1.723,1.643,0
79.70749855041504,1.683,1.76325,1.76325,0
79.75902390480042,1.683,1.76325,1.683,0
79.81169843673706,1.643,1.723,1.683,0
79.86310243606567,1.723,1.683,1.683,0
79.91451263427734,1.76325,1.683,1.683,0
79.96603274345398,1.723,1.76325,1.76325,0
80.01741170883179,1.683,1.76325,1.723,1
80.06814360618591,1.683,1.683,1.643,1
80.11836266517639,1.683,1.76325,1.683,1
80.16852903366089,1.723,1.76325,1.683,1
80.21876239776611,1.723,1.76325,1.683,1
80.26897192001343,1.76325,1.683,1.643,1
80.31908798217773,1.80325,1.76325,1.76325,1
80.36929416656494,1.9635,2.0035,2.204,1
80.41939282417297,2.88525,2.60475,3.84675,1
80.46981000900269,2.40425,2.88525,3.24575,1
80.5213270187378,2.36425,2.64475,4.28775,1
80.57171082496643,2.64475,3.1255,3.1255,1
80.62220692634583,2.60475,3.1255,2.845,1
80.67273616790771,3.1255,2.96525,2.805,1
80.72304916381836,2.805,3.00525,2.64475,1
80.77345442771912,2.96525,2.88525,2.805,1
80.82381820678711,2.5245,2.5645,2.5645,1
80.87431716918945,2.04375,2.4845,2.40425,1
80.92477226257324,2.0035,2.4845,2.5245,1
80.97531175613403,2.08375,2.2840000000000003,2.04375,1
81.02596688270569,2.204,2.244,2.4845,1
81.07650470733643,2.0035,2.36425,2.08375,1
81.12704873085022,2.16375,2.16375,2.204,1
81.17757892608643,2.0035,2.204,1.9635,1
81.22830724716187,1.80325,2.4845,2.04375,1
81.27903580665588,2.04375,2.40425,2.08375,1
81.32980871200562,2.36425,2.0035,1.9635,1
81.38051843643188,1.9235,1.9635,2.5645,1
81.4313714504242,2.4442500000000003,2.12375,2.68475,1
81.48223042488098,2.12375,2.0035,2.60475,1
81.53302764892578,2.12375,2.08375,2.40425,1
81.58399271965027,1.9635,2.0035,2.204,1
81.63486742973328,1.88325,2.0035,2.08375,1
81.68589186668396,1.76325,1.84325,2.0035,1
81.73668265342712,1.9635,2.16375,2.16375,1
81.78748297691345,1.88325,2.08375,2.0035,1
81.83829021453857,1.84325,1.9235,1.9235,1
81.88907980918884,1.683,1.84325,1.80325,1
81.93993592262268,1.723,1.9635,1.683,1
81.99200963973999,1.76325,1.84325,1.80325,1
82.04286646842957,1.60275,1.9235,1.80325,1
82.09384179115295,1.723,1.80325,1.80325,1
82.14475584030151,1.60275,1.76325,1.723,1
82.19579482078552,1.723,2.0035,1.76325,1
82.24681997299194,1.80325,2.204,2.0035,1
82.29790759086609,1.76325,2.32425,2.08375,1
82.3489637374878,1.9235,1.9635,1.9235,1
82.40003156661987,1.9635,1.9235,2.0035,1
82.45109796524048,2.16375,2.40425,2.32425,1
82.50217771530151,2.204,2.5245,2.12375,1
82.55328392982483,1.84325,2.32425,1.723,1
82.60438680648804,2.0035,2.32425,1.9235,1
82.65561509132385,1.80325,2.2840000000000003,1.9635,1
82.70925736427307,2.60475,2.16375,1.9235,1
82.76063132286072,2.40425,2.244,2.16375,1
82.8119010925293,2.16375,2.04375,1.84325,1
82.86318182945251,2.32425,2.16375,2.204,1
82.91442441940308,2.08375,1.9635,1.9235,1
82.96566486358643,1.9235,2.2840000000000003,1.683,1
83.01694250106812,1.9235,1.9635,2.12375,1
83.06835532188416,1.88325,2.0035,2.244,1
83.11982870101929,2.12375,2.16375,2.12375,1
83.17109775543213,2.08375,2.204,2.0035,1
83.22254085540771,2.32425,2.12375,1.84325,1
83.27398204803467,2.12375,1.88325,2.08375,1
83.32545447349548,1.9635,2.16375,2.0035,1
83.37693929672241,2.08375,2.08375,2.4442500000000003,1
83.42842221260071,2.16375,2.12375,1.9235,1
83.48119020462036,2.32425,2.0035,2.244,1
83.53278851509094,2.244,2.16375,2.204,1
83.58439350128174,2.08375,2.16375,2.12375,1
83.63594698905945,2.12375,2.12375,2.04375,1
83.68738985061646,2.04375,1.9235,1.76325,1
83.7388858795166,1.84325,2.0035,1.643,1
83.79034352302551,1.76325,1.84325,1.683,1
83.84195065498352,1.60275,1.9235,1.683,1
83.89347529411316,1.60275,2.12375,1.683,1
83.94504594802856,2.08375,2.32425,2.40425,1
83.99674034118652,2.04375,2.2840000000000003,2.32425,1
84.04848098754883,2.04375,2.36425,1.9635,1
84.10019850730896,2.04375,2.5245,2.08375,1
84.1519148349762,2.16375,2.5645,2.12375,1
84.20350289344788,2.92525,2.40425,2.40425,1
84.25518321990967,2.4845,2.08375,2.08375,1
84.30685710906982,2.2840000000000003,1.9235,1.9235,1
84.35874462127686,1.9635,2.0035,1.80325,1
84.41057014465332,1.9635,1.9235,1.56275,1
84.462411403656,2.04375,1.9235,1.683,1
84.51432728767395,1.9635,1.9635,1.683,1
84.56624841690063,2.16375,2.244,1.60275,1
84.61868906021118,2.32425,2.08375,2.08375,1
84.67051005363464,2.244,2.32425,2.40425,1
84.72232556343079,2.4442500000000003,2.32425,2.244,1
84.77433156967163,2.36425,2.88525,2.04375,1
84.82617735862732,2.244,2.88525,2.244,1
84.87814021110535,2.36425,2.4845,2.16375,1
84.93032455444336,2.4845,2.5645,2.204,1
84.9848382472992,2.244,2.4845,1.9635,1
85.03692722320557,2.16375,2.36425,1.84325,2
85.08895444869995,2.32425,2.32425,1.76325,2
85.14102172851562,2.5245,2.16375,2.04375,2
85.19307446479797,2.68475,2.5245,2.204,2
85.24518251419067,2.244,2.60475,1.683,2
85.29738426208496,2.244,2.32425,1.723,2
85.34957551956177,1.84325,2.0035,1.683,2
85.40192818641663,2.08375,2.04375,1.52275,2
85.45406937599182,1.88325,1.723,1.3625,2
85.50622940063477,1.683,2.08375,1.28225,2
85.55850124359131,2.0035,2.5645,1.4025,2
85.61068081855774,1.84325,3.6065,1.28225,2
85.66522741317749,1.9235,4.1675,1.4425,2
85.71790838241577,2.0035,4.8085,1.52275,2
85.77143049240112,1.84325,4.5280000000000005,1.60275,2
85.82361340522766,2.204,5.8505,1.76325,2
85.8760781288147,2.5245,5.089,1.84325,2
85.92856240272522,2.72475,4.8085,2.16375,2
85.98114252090454,2.845,5.20925,2.16375,2
86.03365278244019,2.805,4.64825,2.04375,2
86.08633542060852,2.64475,4.56825,1.9235,2
86.13877367973328,2.72475,3.887,1.88325,2
86.19131660461426,2.72475,4.2475000000000005,1.84325,2
86.24389290809631,2.765,3.72675,2.08375,2
86.29648995399475,2.40425,3.44625,1.9235,2
86.34931349754333,2.244,3.6865,1.88325,2
86.40203499794006,2.244,3.52625,1.723,2
86.45463371276855,2.2840000000000003,3.84675,1.76325,2
86.50870847702026,2.2840000000000003,3.76675,1.84325,2
86.56134414672852,2.64475,4.96875,1.9235,2
86.61417007446289,2.5645,4.1675,2.16375,2
86.66705632209778,2.5245,3.76675,1.9635,2
86.71980690956116,2.32425,3.76675,1.84325,2
86.77265787124634,2.36425,3.52625,1.9235,2
86.82557773590088,2.12375,3.76675,1.683,2
86.87844848632812,2.244,3.44625,1.683,2
86.93125295639038,2.2840000000000003,4.1675,1.76325,2
86.9844241142273,1.84325,3.44625,1.643,2
87.03740358352661,2.36425,3.6865,1.683,2
87.09031081199646,1.9635,3.16575,1.76325,2
87.14334726333618,2.04375,3.28575,1.9235,2
87.19630265235901,2.244,3.6865,1.9635,2
87.25080013275146,2.4845,3.6865,1.88325,2
87.30368685722351,2.68475,3.80675,1.84325,2
87.3566665649414,2.2840000000000003,3.6865,1.9235,2
87.40978455543518,2.2840000000000003,3.80675,1.84325,2
87.46264863014221,2.32425,3.44625,1.76325,2
87.5156261920929,2.16375,3.6065,1.60275,2
87.56872916221619,2.32425,3.76675,1.723,2
87.62187767028809,2.244,3.1255,1.76325,2
87.67513489723206,2.805,4.56825,1.84325,2
87.72828698158264,2.68475,4.08725,1.76325,2
87.78162097930908,2.64475,4.40775,1.9235,2
87.83475852012634,2.4845,4.08725,1.84325,2
87.88794875144958,2.64475,4.08725,1.9235,2
87.94133281707764,2.64475,4.448,1.9235,2
87.99452567100525,2.32425,3.84675,1.723,2
88.0480465888977,2.72475,4.36775,2.0035,2
88.10140657424927,2.40425,4.448,2.0035,2
88.15467834472656,2.4442500000000003,3.6465,1.9235,2
88.20806789398193,2.4845,3.6865,1.80325,2
88.2615077495575,2.5245,3.6865,1.80325,2
88.31502532958984,2.244,3.6865,1.683,2
88.36845874786377,2.244,3.28575,1.643,2
88.42202258110046,2.32425,3.20575,1.52275,2
88.47540426254272,2.16375,2.96525,1.683,2
88.52899980545044,2.08375,3.52625,1.60275,2
88.5826985836029,2.244,3.28575,1.683,2
88.6384687423706,2.12375,2.96525,1.60275,2
88.69216179847717,2.204,3.1255,1.683,2
88.74584674835205,2.04375,2.88525,1.60275,2
88.80067563056946,1.84325,3.406,1.56275,2
88.85432362556458,2.04375,2.72475,1.52275,2
88.9078516960144,2.08375,2.60475,1.52275,2
88.9615490436554,2.08375,2.5245,1.60275,2
89.01532506942749,2.16375,3.0455,1.723,2
89.06910228729248,2.204,3.20575,1.52275,2
89.12277460098267,2.32425,3.20575,1.76325,2
89.17647695541382,2.08375,2.60475,1.643,2
89.23023343086243,2.08375,2.68475,1.60275,2
89.2840313911438,2.5245,3.366,1.76325,2
89.33788418769836,2.40425,3.326,1.76325,2
89.3915696144104,2.16375,3.52625,1.683,2
89.44536137580872,2.04375,3.20575,1.683,2
89.49916505813599,2.204,3.28575,1.683,2
89.55288004875183,2.244,3.28575,1.60275,2
89.60678744316101,2.16375,3.927,1.88325,2
89.66042685508728,2.08375,3.80675,1.84325,2
89.7144865989685,2.2840000000000003,3.927,1.84325,2
89.76842737197876,2.4442500000000003,3.927,1.723,2
89.82237935066223,2.244,3.927,1.683,2
89.87638878822327,2.4845,4.32775,1.80325,2
89.9304358959198,2.5645,3.84675,1.723,2
89.98447751998901,2.2840000000000003,3.6865,1.643,2
90.03857278823853,2.4845,4.12725,1.9235,0
90.09264659881592,2.16375,3.44625,1.683,0
90.14682722091676,2.68475,3.927,2.0035,0
90.2008764743805,2.40425,3.20575,1.80325,0
90.25491452217102,2.2840000000000003,3.20575,1.80325,0
90.30912041664124,2.08375,3.16575,1.76325,0
90.3644642829895,2.08375,3.6865,1.723,0
90.41870427131651,2.04375,2.88525,1.60275,0
90.47283744812012,2.0035,2.4442500000000003,1.60275,0
90.52702808380128,2.2840000000000003,2.5645,1.76325,0
90.58137226104736,2.16375,2.08375,1.683,0
90.635644197464,2.16375,1.76325,1.60275,0
90.68994927406312,1.9235,1.80325,1.52275,0
90.74428057670592,1.76325,1.643,1.76325,0
90.79874420166016,1.723,1.60275,1.76325,0
90.85307669639587,1.76325,1.56275,1.52275,0
90.90734219551086,1.683,1.52275,1.48275,0
90.96183061599731,1.84325,1.56275,1.48275,0
91.01625227928162,1.80325,1.60275,1.52275,0
91.07066583633424,1.76325,1.52275,1.4425,0
91.12496852874756,1.683,1.48275,1.3625,0
91.17940998077393,1.76325,1.52275,1.3625,0
91.23383474349976,1.723,1.52275,1.4025,0
91.28806257247923,1.723,1.4425,1.4425,0
91.34354543685912,1.723,1.52275,1.4025,0
91.39816951751708,1.723,1.60275,1.4425,0
91.45248866081238,1.84325,1.52275,1.4425,0
91.5068473815918,1.723,1.52275,1.4425,0
91.56124329566956,1.80325,1.52275,1.4025,0
91.61570596694946,1.76325,1.52275,1.3625,0
91.67029237747192,1.76325,1.60275,1.4025,0
91.72670793533324,1.683,1.52275,1.4425,0
91.7812316417694,1.76325,1.4425,1.3625,0
91.83566188812256,1.84325,1.52275,1.3625,0
91.89018201828004,1.76325,1.56275,1.4425,0
91.94602060317992,1.76325,1.52275,1.48275,0
92.00046634674072,1.80325,1.48275,1.3625,0
92.05490851402284,1.80325,1.4425,1.3625,0
92.10944414138794,1.723,1.52275,1.4425,0
92.16381907463074,1.76325,1.60275,1.4425,0
92.21852326393127,1.84325,1.52275,1.3625,0
92.2730393409729,1.76325,1.4425,1.3625,0
92.32767844200134,1.80325,1.52275,1.4425,0
92.38252019882202,1.76325,1.52275,1.4425,0
92.437194108963,1.88325,1.4425,1.4425,0
92.49165606498718,1.723,1.52275,1.4425,0
92.54635787010191,1.80325,1.52275,1.4425,0
92.60111856460573,1.76325,1.56275,1.4425,0
92.65569186210632,1.723,1.4425,1.4425,0
92.71051907539368,1.76325,1.4425,1.4425,0
92.7654857635498,1.76325,1.52275,1.3625,0
92.81992816925047,1.80325,1.52275,1.4425,0
92.87460160255432,1.76325,1.52275,1.4025,0
92.9292652606964,1.80325,1.52275,1.4425,0
92.9839129447937,1.76325,1.52275,1.3625,0
93.03995537757874,1.723,1.52275,1.4425,0
93.09482049942017,1.76325,1.52275,1.4425,0
93.14986038208008,1.76325,1.48275,1.3625,0
93.20460939407349,1.80325,1.4425,1.4425,0
93.25942921638487,1.723,1.52275,1.4425,0
93.31441164016724,1.84325,1.52275,1.4425,0
93.36912417411804,1.84325,1.48275,1.3625,0
93.42381238937378,1.723,1.48275,1.4025,0
93.47865128517152,1.84325,1.52275,1.48275,0
93.53520107269289,1.76325,1.52275,1.4425,0
93.59013319015504,1.76325,1.4425,1.4025,0
93.64511227607728,1.84325,1.52275,1.4025,0
93.70004844665527,1.84325,1.52275,1.4425,0
93.75489902496338,1.723,1.52275,1.4425,0
93.80990219116212,1.76325,1.52275,1.4425,0
93.8647723197937,1.76325,1.52275,1.3625,0
93.91964030265808,1.84325,1.52275,1.4025,0
93.9746925830841,1.683,1.52275,1.4425,0
94.02954125404358,1.80325,1.52275,1.4025,0
94.08452773094176,1.84325,1.4425,1.3625,0
94.13944125175476,1.723,1.52275,1.4425,0
94.19447422027588,1.76325,1.52275,1.48275,0
94.24942421913148,1.84325,1.52275,1.4025,0
94.30419397354126,1.76325,1.4425,1.3625,0
94.35973381996156,1.76325,1.52275,1.4425,0
94.41473889350893,1.683,1.60275,1.4425,0
94.46962189674376,1.80325,1.52275,1.4425,0
94.52456617355348,1.723,1.4425,1.3625,0
94.57973337173462,1.76325,1.52275,1.4425,0
94.63570880889893,1.76325,1.52275,1.4425,0
94.69261598587036,1.723,1.4425,1.4425,0
94.74779438972472,1.76325,1.4425,1.4025,0
94.8028781414032,1.80325,1.48275,1.4025,0
94.8580675125122,1.683,1.52275,1.48275,0
94.9130072593689,1.76325,1.52275,1.4425,0
94.96806406974792,1.76325,1.4425,1.3625,0
95.02318787574768,1.76325,1.48275,1.4025,1
95.0784397125244,1.84325,1.52275,1.4425,1
95.13480639457704,1.84325,1.52275,1.4025,1
95.19000959396362,1.76325,1.4425,1.3625,1
95.24507737159728,1.80325,1.52275,1.3625,1
95.3003237247467,1.84325,1.52275,1.4425,1
95.35559678077698,1.84325,1.52275,1.52275,1
95.41100764274596,2.2840000000000003,2.04375,2.204,1
95.46642065048218,2.32425,2.40425,3.24575,1
95.52162313461304,2.5245,2.5645,2.92525,1
95.57703804969788,2.4442500000000003,2.60475,2.88525,1
95.63242435455322,1.84325,2.64475,2.96525,1
95.68787622451782,2.765,2.5245,2.88525,1
95.7434582710266,2.40425,2.2840000000000003,2.72475,1
95.7989890575409,2.5245,2.40425,2.72475,1
95.85435628890993,2.72475,2.244,2.32425,1
95.90997052192688,2.244,2.2840000000000003,2.68475,1
95.96585369110107,2.845,2.68475,2.845,1
96.02123689651488,3.16575,2.40425,2.64475,1
96.07679200172424,2.64475,2.2840000000000003,2.88525,1
96.13245296478271,2.40425,2.32425,2.68475,1
96.18804574012756,2.2840000000000003,2.5645,2.08375,1
96.24377298355104,2.204,2.204,2.16375,1
96.29960465431212,2.36425,2.12375,2.12375,1
96.35528063774107,1.9235,2.244,1.9635,1
96.4109959602356,2.0035,2.08375,2.16375,1
96.46669268608092,2.68475,2.0035,2.16375,1
96.522314786911,2.08375,1.76325,2.32425,1
96.57822561264038,2.4845,2.16375,2.0035,1
96.63415336608888,2.72475,2.5245,2.16375,1
96.69014096260072,2.40425,2.32425,2.0035,1
96.74719619750977,2.32425,2.244,1.84325,1
96.80298781394958,2.2840000000000003,2.04375,2.204,1
96.85878825187685,3.20575,2.04375,2.4845,1
96.91468620300292,2.88525,1.9635,2.32425,1
96.97059535980225,2.244,1.80325,2.40425,1
97.02671456336977,2.36425,1.80325,2.12375,1
97.0827214717865,2.5245,2.08375,2.0035,1
97.13878059387208,2.2840000000000003,2.0035,1.88325,1
97.19482731819151,2.4845,1.9235,1.84325,1
97.25092935562134,2.16375,1.84325,1.88325,1
97.30686068534852,1.88325,1.9235,1.84325,1
97.3627953529358,2.0035,1.84325,1.76325,1
97.41889452934264,2.244,1.80325,1.76325,1
97.47488951683044,1.9635,1.76325,1.60275,1
97.53081226348876,2.0035,1.76325,1.683,1
97.58692598342896,1.84325,2.0035,1.60275,1
97.644788980484,1.76325,1.80325,1.52275,1
97.70086693763731,2.04375,1.683,1.683,1
97.75684881210329,1.683,1.76325,1.683,1
97.81286025047302,1.60275,1.723,1.4025,1
97.86888790130617,1.9235,1.84325,1.60275,1
97.92491483688354,1.683,1.723,1.48275,1
97.98097801208496,1.84325,1.723,1.76325,1
98.03714656829834,1.84325,1.683,1.723,1
98.09335613250732,1.9635,1.76325,1.52275,1
98.14958834648132,2.0035,1.60275,1.84325,1
98.20591521263124,1.9235,1.60275,2.08375,1
98.26218104362488,1.88325,1.60275,2.204,1
98.31852459907532,1.9235,1.84325,2.32425,1
98.37620663642883,2.08375,1.76325,1.76325,1
98.43262481689452,2.08375,1.84325,1.76325,1
98.48891258239746,1.9635,1.683,1.60275,1
98.54538607597352,1.76325,1.683,1.84325,1
98.60187244415285,2.0035,1.683,1.76325,1
98.65835046768188,2.0035,1.723,1.88325,1
98.71475887298584,2.08375,1.76325,2.204,1
98.7712471485138,1.84325,1.683,2.08375,1
98.82777571678162,1.88325,1.60275,1.9235,1
98.8844668865204,2.04375,1.60275,1.9235,1
98.94096875190736,2.0035,1.80325,1.84325,1
98.99741530418396,1.84325,1.80325,1.80325,1
99.05389714241028,1.80325,1.60275,1.76325,1
99.1103377342224,1.88325,1.60275,1.60275,1
99.16685128211977,2.04375,1.76325,1.643,1
99.2234377861023,1.80325,1.76325,1.76325,1
99.27992177009584,1.52275,1.683,1.60275,1
99.3363938331604,1.80325,1.52275,1.60275,1
99.3929967880249,1.9235,1.52275,1.683,1
99.44960856437685,2.16375,1.60275,1.84325,1
99.50625157356262,1.9235,1.683,1.76325,1
99.56291460990906,1.84325,1.52275,1.52275,1
99.62019968032835,2.04375,1.60275,1.683,1
99.67697048187256,2.12375,1.76325,1.723,1
99.73359966278076,2.08375,1.88325,1.60275,1
99.79029417037964,2.0035,1.76325,1.84325,1
99.84702396392822,1.9235,1.683,1.683,1
99.90366625785828,1.9635,1.683,1.9635,1
99.96046710014345,1.76325,1.683,1.683,1
100.01866316795348,1.723,1.48275,1.3625,2
100.07546973228456,1.88325,1.76325,1.4425,2
100.13245582580566,1.88325,1.60275,1.28225,2
100.18929433822632,1.683,1.683,1.24225,2
100.24624156951904,1.683,1.76325,1.122,2
100.30318665504456,1.60275,3.00525,1.122,2
100.36026096343994,1.723,3.52625,1.24225,2
100.41729140281676,1.9235,4.00725,1.3625,2
100.47425293922424,1.76325,4.56825,1.4025,2
100.5313596725464,2.08375,4.5280000000000005,1.60275,2
100.58848547935486,2.244,4.7685,1.88325,2
100.6456606388092,2.32425,4.488,1.76325,2
100.70275282859802,2.32425,4.08725,1.84325,2
100.75991916656494,2.40425,4.64825,1.9235,2
100.81709384918211,2.40425,3.84675,1.84325,2
100.87461280822754,2.64475,4.1675,2.204,2
100.93181586265564,2.5645,3.76675,2.0035,2
100.98915338516235,2.4845,3.927,1.84325,2
101.04636192321776,2.92525,4.56825,2.08375,2
101.1036298274994,2.64475,4.2475000000000005,2.0035,2
101.16096115112305,2.64475,3.927,1.84325,2
101.21839094161987,2.64475,3.6865,1.9235,2
101.2757692337036,2.60475,4.04725,1.84325,2
101.33445763587952,2.4845,3.84675,1.84325,2
101.3919951915741,2.5245,3.927,1.723,2
101.44949436187744,2.88525,4.64825,1.9235,2
101.50673127174376,2.40425,4.448,1.76325,2
101.56431722640993,2.40425,3.6865,1.80325,2
101.62193489074708,2.4442500000000003,3.76675,1.80325,2
101.68080067634584,2.36425,3.0455,1.76325,2
101.73832988739014,2.244,3.84675,1.88325,2
101.79598116874696,2.805,3.6865,2.0035,2
101.85368514060974,2.36425,3.84675,1.9235,2
101.91140961647034,2.16375,4.488,1.84325,2
101.9692883491516,2.4845,3.927,2.0035,2
102.02688646316528,2.12375,4.04725,1.9235,2
102.08469319343568,1.9235,4.08725,1.84325,2
102.1425096988678,2.12375,3.6065,1.84325,2
102.2002112865448,2.16375,3.84675,1.9235,2
102.25808715820312,1.9235,3.927,2.04375,2
102.31594920158386,1.9235,3.927,2.04375,2
102.37364101409912,2.16375,4.40775,2.2840000000000003,2
102.4315152168274,2.2840000000000003,4.08725,2.244,2
102.48936605453493,2.12375,4.40775,2.204,2
102.54747939109802,2.36425,3.6865,2.08375,2
102.60533809661864,2.04375,3.80675,2.0035,2
102.66316628456116,2.12375,3.927,2.08375,2
102.7211344242096,1.84325,3.76675,1.9235,2
102.77914023399352,2.08375,3.6865,1.9235,2
102.83731174468994,1.723,3.1255,1.9235,2
102.89538145065308,1.84325,3.52625,1.84325,2
102.9533429145813,1.683,3.52625,1.76325,2
103.01138138771056,1.84325,3.28575,1.76325,2
103.06962251663208,2.0035,3.84675,2.0035,2
103.1278202533722,1.9235,3.366,1.9235,2
103.18612098693848,1.9635,3.20575,1.9635,2
103.2444269657135,2.36425,4.04725,2.204,2
103.30271291732788,2.08375,3.326,2.04375,2
103.3623912334442,2.08375,3.44625,1.9635,2
103.42058658599854,1.80325,3.967,1.84325,2
103.47893357276917,2.08375,3.366,1.84325,2
103.53737020492554,1.9235,3.44625,1.9235,2
103.59562015533449,2.0035,3.76675,1.9235,2
103.65417790412904,1.88325,3.44625,1.84325,2
103.71264457702635,2.16375,3.28575,1.76325,2
103.77101826667786,2.08375,2.96525,1.84325,2
103.82946133613586,2.244,3.28575,2.0035,2
103.88785147666933,2.08375,3.44625,2.04375,2
103.94642615318298,2.16375,3.366,1.84325,2
104.00527501106262,2.36425,3.967,1.84325,2
104.06364917755128,2.2840000000000003,3.72675,1.9635,2
104.12218117713928,2.04375,3.52625,2.0035,2
104.18068265914916,2.32425,3.967,2.0035,2
104.2396547794342,1.9235,3.28575,1.9235,2
104.29820251464844,1.80325,2.64475,1.84325,2
104.3568036556244,1.9635,2.4442500000000003,1.683,2
104.41532778739928,2.204,2.88525,1.84325,2
104.47398614883424,1.9235,2.96525,1.84325,2
104.5325644016266,1.84325,2.765,1.76325,2
104.59117436408997,1.80325,3.0855,1.88325,2
104.650696516037,2.204,2.5245,1.84325,2
104.70936179161072,2.244,3.24575,1.9235,2
104.76799273490906,2.16375,4.00725,2.0035,2
104.82672905921936,2.0035,3.76675,1.9235,2
104.88555359840392,1.84325,3.44625,1.723,2
104.94440579414368,1.76325,3.1255,1.76325,2
105.00325870513916,1.80325,2.72475,1.76325,0
105.06338477134705,1.9635,2.765,1.84325,0
105.1222686767578,1.9235,2.805,1.88325,0
105.1810188293457,2.04375,2.60475,1.84325,0
105.23986434936523,1.88325,2.60475,1.80325,0
105.2986958026886,2.16375,3.0455,1.9635,0
105.3574686050415,2.5645,4.12725,2.32425,0
105.4164171218872,2.244,3.84675,2.16375,0
105.47537899017334,2.0035,3.0455,1.9635,0
105.5344603061676,1.88325,2.16375,1.80325,0
105.59346389770508,1.80325,1.88325,1.84325,0
105.65238738059998,1.9235,1.84325,1.9235,0
105.71146416664124,1.84325,1.80325,1.80325,0
105.7705454826355,1.76325,1.683,1.683,0
105.82978749275208,1.76325,1.76325,1.76325,0
105.88887143135072,1.683,1.80325,1.76325,0
105.94826412200928,1.76325,1.76325,1.683,0
106.00731825828552,1.80325,1.683,1.683,0
106.0665442943573,1.84325,1.683,1.76325,0
106.12563920021056,1.76325,1.80325,1.76325,0
106.18465733528136,1.84325,1.76325,1.723,0
106.24382138252258,1.84325,1.76325,1.683,0
106.30296850204468,1.84325,1.76325,1.683,0
106.36236023902892,1.84325,1.76325,1.683,0
106.4215443134308,1.9235,1.683,1.723,0
106.48081421852112,1.84325,1.683,1.683,0
106.53989720344543,1.84325,1.76325,1.76325,0
106.59911370277403,1.88325,1.683,1.76325,0
106.65838861465454,1.88325,1.76325,1.683,0
106.71768498420715,1.80325,1.683,1.683,0
106.77848076820374,1.88325,1.76325,1.683,0
106.83762431144714,1.84325,1.723,1.683,0
106.89687776565552,1.84325,1.683,1.60275,0
106.95605373382568,1.9235,1.683,1.683,0
107.01601243019104,1.84325,1.683,1.76325,0
107.07526993751526,1.80325,1.76325,1.683,0
107.13463521003725,1.76325,1.723,1.643,0
107.1939606666565,1.88325,1.723,1.683,0
107.2532217502594,1.76325,1.76325,1.76325,0
107.31252884864809,1.9235,1.76325,1.683,0
107.37178373336792,1.84325,1.683,1.683,0
107.43121933937071,1.84325,1.683,1.683,0
107.49061751365662,1.80325,1.76325,1.723,0
107.55000638961792,1.80325,1.683,1.683,0
107.60927987098694,1.76325,1.76325,1.60275,0
107.6688780784607,1.76325,1.723,1.683,0
107.7281732559204,1.9235,1.76325,1.723,0
107.7874825000763,1.84325,1.723,1.76325,0
107.84681749343872,1.84325,1.683,1.683,0
107.90621256828308,1.80325,1.76325,1.683,0
107.9657826423645,1.80325,1.723,1.723,0
108.02524065971376,1.84325,1.683,1.683,0
108.0846781730652,1.76325,1.683,1.60275,0
108.14407420158386,1.84325,1.683,1.683,0
108.20356822013856,1.80325,1.76325,1.683,0
108.26305627822876,1.88325,1.683,1.60275,0
108.32254362106325,1.84325,1.683,1.723,0
108.38219714164734,1.80325,1.76325,1.723,0
108.44169569015504,1.84325,1.76325,1.723,0
